9.644850450000000419e+05,9.597709910000000382e+05,9.614711909999999916e+05,9.605256679999999469e+05,9.613561959999999963e+05,9.605810729999999749e+05,9.609978429999999935e+05,9.605353830000000307e+05,9.606126400000000140e+05,9.596115389999999898e+05,9.593186160000000382e+05,9.587748479999999981e+05,9.597425679999999702e+05,9.611316189999999478e+05,9.632783900000000140e+05,9.657512060000000056e+05,9.704096629999999423e+05,9.755765550000000512e+05,9.814121330000000307e+05,9.853488329999999842e+05,9.867247369999999646e+05,9.836952610000000568e+05,9.799348610000000335e+05,9.752984399999999441e+05,9.709761430000000400e+05,9.676908109999999870e+05,9.655096720000000205e+05,9.639170550000000512e+05,9.620743320000000531e+05,9.601029520000000484e+05,9.591967889999999898e+05,9.588929459999999963e+05,9.587511520000000019e+05,9.578450479999999516e+05,9.572785840000000317e+05,9.567404429999999702e+05,9.565364030000000494e+05,9.560631369999999879e+05,9.556554279999999562e+05,9.550059830000000075e+05,9.545532210000000196e+05,9.546333320000000531e+05,9.553253299999999581e+05,9.562151210000000428e+05,9.571771679999999469e+05,9.576563220000000438e+05,9.582092129999999888e+05,9.584219350000000559e+05,9.590130829999999842e+05,9.596960230000000447e+05,9.603085100000000093e+05,9.605328000000000466e+05,9.608214370000000345e+05,9.609058900000000140e+05,9.609535779999999795e+05,9.608896959999999963e+05,9.610828399999999674e+05,9.612683510000000242e+05,9.614772800000000279e+05,9.615383580000000075e+05,9.617545359999999637e+05,9.616978510000000242e+05,9.618242650000000140e+05,9.618686339999999618e+05,9.620922550000000047e+05,9.622048499999999767e+05,9.623052430000000168e+05,9.623433240000000224e+05,9.624900189999999711e+05,9.624342780000000494e+05,9.624193220000000438e+05,9.624252530000000261e+05,9.626818310000000056e+05,9.627389629999999888e+05,9.627968519999999553e+05,9.626485389999999898e+05,9.625516169999999693e+05,9.623500110000000568e+05,9.623905670000000391e+05,9.623374189999999944e+05,9.622681700000000419e+05,9.620615520000000251e+05,9.619911319999999832e+05,9.619188810000000522e+05,9.617621870000000345e+05,9.615185600000000559e+05,9.615279329999999609e+05,9.615902530000000261e+05,9.616637290000000503e+05,9.617537149999999674e+05,9.617476269999999786e+05,9.616599490000000224e+05,9.617503839999999618e+05,9.619534309999999823e+05,9.622530069999999832e+05,9.623779799999999814e+05,9.625412149999999674e+05,9.626200740000000224e+05,9.629073569999999600e+05,9.630333310000000056e+05,9.633611539999999804e+05,9.635317190000000410e+05,9.635885799999999581e+05,9.637144819999999600e+05,9.639733360000000102e+05,9.639761879999999655e+05,9.641644930000000168e+05,9.642921169999999693e+05,9.645624610000000102e+05,9.648404129999999423e+05,9.650830320000000065e+05,9.651582140000000363e+05,9.652771030000000028e+05,9.652427469999999739e+05,9.653124449999999488e+05,9.654443179999999702e+05,9.656643329999999842e+05,9.657750679999999702e+05,9.659981219999999739e+05,9.659912349999999860e+05,9.660871069999999600e+05,9.661337560000000522e+05,9.662905690000000177e+05,9.663735219999999972e+05,9.665092809999999590e+05,9.665829220000000205e+05,9.665372090000000317e+05,9.663382939999999944e+05,9.662887169999999460e+05,9.662446090000000549e+05,9.661943209999999963e+05,9.660488780000000261e+05,9.659003100000000559e+05,9.655805119999999879e+05,9.653782850000000326e+05,9.650826530000000494e+05,9.649400590000000084e+05,9.647376750000000466e+05,9.642560389999999898e+05,9.639720969999999506e+05,9.637291539999999804e+05,9.634015379999999423e+05,9.631985729999999749e+05,9.629819170000000158e+05,9.629661330000000307e+05,9.628841369999999879e+05,9.628747099999999627e+05,9.627739320000000298e+05,9.626370940000000410e+05,9.624781310000000522e+05,9.624469020000000019e+05,9.625495350000000326e+05,9.625346400000000140e+05,9.624044239999999991e+05,9.625036010000000242e+05,9.625271650000000373e+05,9.623998730000000214e+05,9.623218880000000354e+05,9.624395600000000559e+05,9.623638179999999702e+05,9.623275979999999981e+05,9.622953329999999842e+05,9.622334679999999935e+05,9.621546319999999832e+05,9.621922630000000354e+05,9.622653930000000400e+05,9.624489080000000540e+05,9.624305429999999469e+05,9.625379790000000503e+05,9.625319889999999432e+05,9.626503100000000559e+05,9.626688839999999618e+05,9.628254980000000214e+05,9.630271280000000261e+05,9.631657510000000475e+05,9.632255359999999637e+05,9.632711570000000065e+05,9.633182299999999814e+05,9.633879699999999721e+05,9.634731480000000447e+05,9.636903839999999618e+05,9.637524740000000456e+05,9.638252090000000317e+05,9.636760760000000009e+05,9.636357280000000028e+05,9.636608860000000568e+05,9.637669499999999534e+05,9.638258449999999721e+05,9.638354059999999590e+05,9.637818810000000522e+05,9.638407519999999786e+05,9.638531530000000494e+05,9.639278000000000466e+05,9.639166909999999916e+05,9.640082480000000214e+05,9.639620010000000475e+05,9.640743079999999609e+05,9.641043930000000400e+05,9.641001909999999916e+05,9.640354760000000242e+05,9.641959109999999637e+05,9.642851250000000000e+05,9.645017580000000307e+05,9.644995239999999758e+05,9.645235239999999758e+05,9.644405670000000391e+05,9.644640420000000158e+05,9.643279729999999981e+05,9.643791219999999739e+05,9.644783959999999497e+05,9.645135110000000568e+05,9.644438540000000503e+05,9.643406069999999600e+05,9.642893760000000475e+05,9.642706679999999469e+05,9.642242099999999627e+05,9.643733950000000186e+05,9.643224810000000289e+05,9.642350459999999730e+05,9.641626650000000373e+05,9.642023090000000084e+05,9.640743639999999432e+05,9.640339840000000549e+05,9.640459819999999600e+05,9.641363639999999432e+05,9.641625969999999506e+05,9.642053499999999767e+05,9.640685000000000000e+05,9.639616380000000354e+05,9.639124270000000251e+05,9.641385570000000298e+05,9.642245879999999888e+05,9.643682550000000047e+05,9.645344440000000177e+05,9.646649459999999963e+05,9.647124359999999870e+05,9.648932950000000419e+05,9.651921099999999860e+05,9.654942299999999814e+05,9.656087739999999758e+05,9.657209980000000214e+05,9.656618490000000456e+05,9.658896130000000121e+05,9.657859159999999683e+05,9.658063649999999907e+05,9.660499129999999423e+05,9.664040400000000373e+05,9.668663399999999674e+05,9.671565979999999981e+05,9.672057269999999553e+05,9.672815050000000047e+05,9.673514490000000224e+05,9.675624960000000428e+05,9.675660060000000522e+05,9.675506389999999665e+05,9.675320540000000037e+05,9.673102169999999460e+05,9.671912750000000233e+05,9.668699749999999767e+05,9.667883020000000251e+05,9.667833800000000047e+05,9.665164070000000065e+05,9.662048490000000456e+05,9.656364830000000075e+05,9.651257879999999423e+05,9.646618810000000522e+05,9.647005659999999916e+05,9.647199129999999423e+05,9.643946770000000251e+05,9.641687839999999851e+05,9.639785459999999730e+05,9.637537500000000000e+05,9.636713719999999739e+05,9.636429000000000233e+05,9.637553689999999478e+05,9.636635590000000084e+05,9.635616609999999637e+05,9.634156030000000028e+05,9.633853209999999963e+05,9.632690559999999823e+05,9.634278860000000568e+05,9.635614379999999655e+05,9.635710609999999870e+05,9.635868240000000224e+05,9.634615080000000307e+05,9.633253260000000009e+05,9.632118410000000149e+05,9.631715860000000102e+05,9.633643340000000317e+05,9.633486019999999553e+05,9.634433419999999460e+05,9.634564669999999460e+05,9.633672210000000196e+05,9.633903329999999842e+05,9.632706380000000354e+05,9.633045350000000326e+05,9.633101779999999562e+05,9.632374129999999423e+05,9.631577879999999423e+05,9.629751520000000019e+05,9.624456899999999441e+05,9.617065479999999516e+05,9.614717179999999935e+05,9.617643109999999870e+05,9.629383909999999451e+05,9.646979549999999581e+05,9.663889320000000298e+05,9.698286419999999925e+05,9.747129320000000298e+05,9.803740339999999851e+05,9.857503070000000298e+05,9.888028279999999795e+05,9.880195479999999516e+05,9.845686319999999832e+05,9.811148290000000270e+05,9.767859710000000196e+05,9.733525159999999451e+05,9.708028499999999767e+05,9.690456139999999432e+05,9.672166199999999953e+05,9.648254629999999888e+05,9.630645929999999935e+05,9.624336739999999991e+05,9.622831030000000028e+05,9.620363469999999506e+05,9.614098199999999488e+05,9.609390879999999888e+05,9.604350169999999925e+05,9.601422010000000009e+05,9.597267580000000307e+05,9.591059479999999749e+05,9.585035679999999702e+05,9.583837290000000503e+05,9.589783919999999925e+05,9.597903739999999525e+05,9.606568750000000000e+05,9.613376909999999916e+05,9.619150770000000484e+05,9.626170620000000345e+05,9.630792709999999497e+05,9.638217010000000009e+05,9.646019899999999907e+05,9.648430770000000484e+05,9.650474669999999460e+05,9.652871670000000158e+05,9.655361469999999972e+05,9.658404209999999730e+05,9.660696909999999916e+05,9.663480919999999460e+05,9.663983599999999860e+05,9.666074039999999804e+05,9.667468190000000177e+05,9.670506389999999665e+05,9.673919050000000279e+05,9.676158639999999432e+05,9.678085550000000512e+05,9.678516629999999423e+05,9.678452909999999683e+05,9.679395640000000130e+05,9.680662290000000503e+05,9.682915929999999935e+05,9.683738560000000289e+05,9.684639270000000251e+05,9.685228050000000512e+05,9.686286859999999870e+05,9.686592029999999795e+05,9.687704760000000242e+05,9.689496459999999497e+05,9.689662249999999767e+05,9.688798730000000214e+05,9.688974690000000410e+05,9.687577770000000019e+05,9.686130849999999627e+05,9.683334599999999627e+05,9.683689150000000373e+05,9.683540969999999506e+05,9.683235050000000047e+05,9.683729640000000363e+05,9.682933070000000298e+05,9.682006310000000522e+05,9.682252680000000400e+05,9.683425450000000419e+05,9.686055860000000102e+05,9.687959070000000065e+05,9.689637160000000149e+05,9.689969370000000345e+05,9.692441940000000177e+05,9.693484170000000158e+05,9.695577020000000484e+05,9.699218510000000242e+05,9.701159440000000177e+05,9.703951559999999590e+05,9.705677550000000047e+05,9.706976850000000559e+05,9.708625370000000112e+05,9.709795810000000056e+05,9.713734420000000391e+05,9.715967430000000168e+05,9.717628989999999758e+05,9.719622959999999730e+05,9.721158850000000093e+05,9.720951709999999730e+05,9.722703630000000121e+05,9.725911650000000373e+05,9.727600799999999581e+05,9.728524139999999898e+05,9.730314690000000410e+05,9.730773329999999842e+05,9.731798179999999702e+05,9.733212179999999935e+05,9.736698260000000009e+05,9.738771800000000512e+05,9.741072489999999525e+05,9.743824840000000549e+05,9.745482449999999953e+05,9.745235080000000307e+05,9.745168090000000084e+05,9.746472850000000326e+05,9.748507380000000121e+05,9.748626949999999488e+05,9.749254880000000121e+05,9.748865459999999730e+05,9.747879960000000428e+05,9.745887970000000205e+05,9.745548769999999786e+05,9.744361850000000559e+05,9.742975500000000466e+05,9.740094790000000503e+05,9.736482349999999860e+05,9.732569259999999776e+05,9.730271580000000540e+05,9.728269719999999506e+05,9.727797369999999646e+05,9.726625259999999544e+05,9.725428540000000503e+05,9.723113769999999786e+05,9.721732870000000112e+05,9.720079390000000130e+05,9.717644610000000102e+05,9.716612360000000335e+05,9.715909849999999860e+05,9.714158370000000577e+05,9.712814899999999907e+05,9.712300860000000102e+05,9.711717610000000568e+05,9.709945219999999972e+05,9.710168739999999525e+05,9.710952249999999767e+05,9.710106149999999907e+05,9.709478329999999842e+05,9.708121030000000028e+05,9.705131729999999516e+05,9.704004290000000037e+05,9.704661840000000084e+05,9.705882169999999460e+05,9.705912199999999721e+05,9.706625840000000317e+05,9.705585960000000196e+05,9.705759740000000456e+05,9.706005489999999991e+05,9.707166430000000400e+05,9.709795790000000270e+05,9.710464529999999795e+05,9.710939059999999590e+05,9.712061539999999804e+05,9.712393950000000186e+05,9.713758249999999534e+05,9.715442770000000019e+05,9.718810370000000112e+05,9.720672380000000121e+05,9.723014170000000158e+05,9.722628410000000149e+05,9.723376779999999562e+05,9.724019510000000009e+05,9.724041489999999758e+05,9.726048299999999581e+05,9.726669949999999953e+05,9.728334259999999776e+05,9.727386169999999693e+05,9.725647639999999665e+05,9.725439819999999600e+05,9.724809640000000363e+05,9.725352460000000428e+05,9.726034590000000317e+05,9.726421859999999870e+05,9.726307830000000540e+05,9.724827029999999795e+05,9.724100690000000177e+05,9.724662500000000000e+05,9.725566049999999814e+05,9.728479170000000158e+05,9.729287530000000261e+05,9.729708100000000559e+05,9.729172449999999953e+05,9.729790320000000065e+05,9.729795820000000531e+05,9.729625570000000298e+05,9.732828939999999711e+05,9.732686629999999423e+05,9.732189629999999888e+05,9.732556750000000466e+05,9.730961280000000261e+05,9.730653530000000028e+05,9.730801509999999544e+05,9.731396800000000512e+05,9.730869039999999804e+05,9.730486550000000279e+05,9.729422569999999832e+05,9.728131770000000251e+05,9.727954610000000102e+05,9.728151130000000121e+05,9.729319910000000382e+05,9.730273739999999525e+05,9.729106409999999451e+05,9.728720200000000186e+05,9.727155039999999572e+05,9.726613149999999441e+05,9.726907759999999544e+05,9.727501189999999478e+05,9.728381160000000382e+05,9.728380250000000233e+05,9.729367380000000121e+05,9.731108419999999460e+05,9.733703399999999674e+05,9.735939930000000168e+05,9.739954640000000363e+05,9.743098590000000549e+05,9.743058349999999627e+05,9.742603719999999739e+05,9.742363769999999786e+05,9.742921670000000158e+05,9.740471779999999562e+05,9.742091959999999963e+05,9.747674840000000549e+05,9.754647619999999879e+05,9.758821899999999441e+05,9.758287850000000326e+05,9.759710969999999506e+05,9.760201419999999925e+05,9.762214910000000382e+05,9.762380209999999497e+05,9.762493399999999674e+05,9.762727950000000419e+05,9.761183850000000093e+05,9.759483440000000410e+05,9.756184540000000270e+05,9.756189930000000168e+05,9.756044070000000065e+05,9.752855189999999711e+05,9.751201720000000205e+05,9.747441949999999488e+05,9.742079840000000549e+05,9.740247839999999851e+05,9.739455000000000000e+05,9.738818270000000484e+05,9.735445570000000298e+05,9.734490940000000410e+05,9.732755829999999842e+05,9.730560840000000317e+05,9.729241369999999879e+05,9.728490289999999804e+05,9.729949880000000121e+05,9.730511300000000047e+05,9.729969059999999590e+05,9.728362909999999683e+05,9.727379409999999916e+05,9.728691909999999916e+05,9.727545389999999898e+05,9.727617510000000475e+05,9.726923760000000475e+05,9.728296500000000233e+05,9.729594969999999739e+05,9.728323370000000577e+05,9.728932410000000382e+05,9.727973549999999814e+05,9.729617260000000242e+05,9.731409020000000019e+05,9.732421920000000391e+05,9.733180230000000447e+05,9.732272560000000522e+05,9.730918980000000447e+05,9.728768279999999795e+05,9.729999570000000531e+05,9.731487460000000428e+05,9.731286350000000093e+05,9.731861080000000075e+05,9.728513750000000000e+05,9.720468479999999981e+05,9.713497249999999767e+05,9.709562689999999711e+05,9.715617689999999711e+05,9.732173819999999832e+05,9.752252430000000168e+05,9.772818429999999935e+05,9.814654840000000549e+05,9.868640259999999544e+05,9.928078719999999739e+05,9.978470629999999655e+05,1.000099265000000014e+06,9.979386360000000568e+05,9.936761019999999553e+05,9.891695479999999516e+05,9.845039949999999953e+05,9.811614899999999907e+05,9.787158249999999534e+05,9.772234449999999488e+05,9.756973220000000438e+05,9.735313120000000345e+05,9.719318020000000251e+05,9.712910209999999497e+05,9.714111850000000559e+05,9.712908310000000056e+05,9.706672929999999469e+05,9.704502809999999590e+05,9.703030979999999981e+05,9.698492689999999711e+05,9.693454200000000419e+05,9.686579570000000531e+05,9.680520820000000531e+05,9.676572469999999739e+05,9.679207530000000261e+05,9.685724080000000540e+05,9.690810709999999963e+05,9.697895060000000522e+05,9.702409560000000056e+05,9.706276600000000326e+05,9.711462569999999832e+05,9.716075910000000149e+05,9.723871489999999758e+05,9.726557759999999544e+05,9.725029120000000112e+05,9.725572989999999991e+05,9.726290860000000102e+05,9.728596019999999553e+05,9.730281389999999665e+05,9.730559869999999646e+05,9.729492600000000093e+05,9.729998760000000475e+05,9.730272330000000075e+05,9.729844009999999544e+05,9.732667299999999814e+05,9.733635300000000279e+05,9.733553229999999749e+05,9.733473449999999721e+05,9.731966450000000186e+05,9.731757550000000047e+05,9.733282539999999572e+05,9.734887730000000447e+05,9.737400749999999534e+05,9.739938599999999860e+05,9.741469649999999674e+05,9.740774459999999963e+05,9.739506530000000494e+05,9.737516360000000568e+05,9.736612800000000279e+05,9.737187160000000149e+05,9.737116199999999953e+05,9.736237310000000289e+05,9.733660060000000522e+05,9.731924429999999702e+05,9.729596859999999870e+05,9.727095459999999730e+05,9.727787820000000065e+05,9.726785389999999898e+05,9.726529209999999730e+05,9.725785500000000466e+05,9.724663930000000400e+05,9.725112280000000028e+05,9.725108689999999478e+05,9.726411400000000140e+05,9.726759350000000559e+05,9.728317929999999469e+05,9.729179170000000158e+05,9.728744220000000205e+05,9.729902240000000456e+05,9.730340529999999562e+05,9.732564399999999441e+05,9.734293310000000056e+05,9.735131090000000549e+05,9.736260690000000177e+05,9.735812249999999767e+05,9.736610010000000475e+05,9.737765929999999935e+05,9.739461269999999786e+05,9.741531759999999776e+05,9.742487569999999832e+05,9.743444459999999963e+05,9.742583689999999478e+05,9.742860180000000400e+05,9.742572110000000102e+05,9.743898020000000251e+05,9.745021920000000391e+05,9.745048249999999534e+05,9.747978619999999646e+05,9.748676859999999870e+05,9.749440219999999972e+05,9.749442530000000261e+05,9.750038619999999646e+05,9.751697809999999590e+05,9.752790259999999544e+05,9.754349760000000242e+05,9.753781559999999590e+05,9.753305720000000438e+05,9.753339939999999478e+05,9.752888190000000177e+05,9.753893619999999646e+05,9.753438750000000000e+05,9.752262070000000531e+05,9.750072809999999590e+05,9.745621729999999516e+05,9.742769729999999981e+05,9.739973939999999711e+05,9.737841820000000298e+05,9.735258429999999935e+05,9.733576500000000233e+05,9.730368100000000559e+05,9.726520649999999441e+05,9.723796509999999544e+05,9.719951859999999870e+05,9.716810949999999721e+05,9.715078839999999618e+05,9.712433109999999870e+05,9.711569329999999609e+05,9.709951509999999544e+05,9.707042630000000354e+05,9.705848980000000447e+05,9.704327739999999758e+05,9.703907510000000475e+05,9.703295359999999637e+05,9.702549520000000484e+05,9.701455810000000056e+05,9.699534690000000410e+05,9.697732839999999851e+05,9.696508109999999870e+05,9.696742460000000428e+05,9.694512469999999739e+05,9.692941459999999497e+05,9.691525450000000419e+05,9.688794620000000577e+05,9.688131280000000261e+05,9.687964070000000065e+05,9.689574120000000112e+05,9.691114740000000456e+05,9.691175810000000056e+05,9.689698390000000363e+05,9.688440159999999451e+05,9.689303149999999441e+05,9.689437719999999972e+05,9.691410400000000373e+05,9.692909930000000168e+05,9.694648490000000456e+05,9.695881250000000000e+05,9.695462070000000531e+05,9.695969459999999963e+05,9.695706069999999600e+05,9.696240080000000307e+05,9.698409479999999749e+05,9.699295529999999562e+05,9.699825239999999758e+05,9.698892619999999879e+05,9.699017929999999469e+05,9.698425910000000149e+05,9.698818669999999693e+05,9.700955969999999506e+05,9.700137909999999683e+05,9.702072739999999758e+05,9.702841430000000400e+05,9.703654640000000363e+05,9.703368290000000270e+05,9.703244490000000224e+05,9.704413449999999721e+05,9.705466820000000298e+05,9.706969399999999441e+05,9.706304499999999534e+05,9.704900670000000391e+05,9.705554830000000075e+05,9.705981339999999618e+05,9.707199429999999702e+05,9.707533310000000056e+05,9.707281099999999860e+05,9.705879849999999860e+05,9.704027210000000196e+05,9.702767589999999618e+05,9.700998710000000428e+05,9.701461260000000475e+05,9.701732850000000326e+05,9.700907410000000382e+05,9.700630320000000065e+05,9.698169200000000419e+05,9.697971210000000428e+05,9.697774320000000298e+05,9.697258819999999832e+05,9.696785069999999832e+05,9.697451840000000084e+05,9.698008889999999665e+05,9.695692190000000410e+05,9.694409340000000084e+05,9.692350790000000270e+05,9.691193249999999534e+05,9.692407539999999572e+05,9.694486149999999907e+05,9.697328329999999842e+05,9.699125039999999572e+05,9.700233100000000559e+05,9.701178299999999581e+05,9.701497299999999814e+05,9.703601990000000224e+05,9.704206809999999823e+05,9.705621580000000540e+05,9.706029699999999721e+05,9.704837349999999860e+05,9.703238040000000037e+05,9.702857179999999935e+05,9.706481099999999860e+05,9.710607120000000577e+05,9.715425670000000391e+05,9.718878349999999627e+05,9.718343919999999925e+05,9.719299440000000177e+05,9.720790110000000568e+05,9.721177269999999553e+05,9.721929259999999776e+05,9.722520709999999963e+05,9.720101139999999432e+05,9.715532360000000335e+05,9.712658209999999963e+05,9.710406300000000047e+05,9.710855019999999786e+05,9.710039059999999590e+05,9.706148310000000056e+05,9.703679649999999674e+05,9.698193229999999749e+05,9.694510439999999944e+05,9.693626260000000475e+05,9.692741580000000540e+05,9.690869270000000251e+05,9.686433739999999525e+05,9.685333540000000503e+05,9.683777989999999991e+05,9.683094860000000335e+05,9.680811820000000298e+05,9.678977920000000158e+05,9.679686389999999665e+05,9.679223669999999693e+05,9.679399590000000317e+05,9.678796589999999851e+05,9.676682160000000149e+05,9.676461060000000289e+05,9.675059189999999944e+05,9.675077719999999972e+05,9.675540080000000307e+05,9.677236820000000298e+05,9.676773449999999721e+05,9.676473810000000522e+05,9.677543000000000466e+05,9.675899869999999646e+05,9.677351809999999823e+05,9.678528939999999711e+05,9.678373810000000522e+05,9.678161139999999432e+05,9.676407219999999506e+05,9.675249620000000577e+05,9.674107020000000484e+05,9.674245790000000270e+05,9.674204259999999776e+05,9.673570450000000419e+05,9.673164610000000102e+05,9.666791779999999562e+05,9.659856459999999497e+05,9.655440330000000540e+05,9.658289540000000270e+05,9.671903519999999553e+05,9.691141840000000084e+05,9.711483090000000084e+05,9.748424229999999516e+05,9.801080250000000233e+05,9.860937460000000428e+05,9.913908530000000028e+05,9.946270649999999441e+05,9.935238020000000251e+05,9.892048460000000196e+05,9.845267299999999814e+05,9.792733240000000224e+05,9.755940060000000522e+05,9.728998950000000186e+05,9.714285409999999683e+05,9.700965940000000410e+05,9.680136759999999776e+05,9.664304089999999851e+05,9.655646679999999469e+05,9.656440019999999786e+05,9.654379030000000494e+05,9.649010550000000512e+05,9.646641750000000466e+05,9.645170999999999767e+05,9.641963889999999665e+05,9.636665999999999767e+05,9.631300250000000233e+05,9.625569769999999553e+05,9.622380640000000130e+05,9.627422709999999497e+05,9.634390069999999832e+05,9.641963660000000382e+05,9.650246149999999907e+05,9.655207680000000400e+05,9.658773519999999553e+05,9.661788560000000289e+05,9.667629420000000391e+05,9.673838730000000214e+05,9.678183429999999935e+05,9.679390069999999832e+05,9.679808699999999953e+05,9.680376809999999823e+05,9.681556099999999860e+05,9.684056859999999870e+05,9.685626929999999702e+05,9.686926949999999488e+05,9.686916620000000112e+05,9.686965110000000568e+05,9.688433040000000037e+05,9.688547340000000549e+05,9.690096439999999711e+05,9.692651879999999655e+05,9.693547830000000540e+05,9.695107889999999898e+05,9.694931289999999572e+05,9.695474220000000205e+05,9.695562759999999544e+05,9.697510069999999832e+05,9.699207210000000196e+05,9.699979300000000512e+05,9.701313159999999916e+05,9.700740999999999767e+05,9.700773599999999860e+05,9.699397029999999795e+05,9.699485089999999618e+05,9.699800760000000009e+05,9.698085239999999758e+05,9.697464109999999637e+05,9.695336959999999963e+05,9.693340559999999823e+05,9.691171280000000261e+05,9.691196609999999637e+05,9.691602889999999898e+05,9.689926219999999739e+05,9.690372439999999478e+05,9.689762680000000400e+05,9.690550450000000419e+05,9.691759070000000065e+05,9.692716139999999432e+05,9.696313719999999739e+05,9.698231219999999739e+05,9.700512010000000009e+05,9.701776670000000158e+05,9.701602110000000102e+05,9.702662070000000531e+05,9.704331319999999832e+05,9.707153760000000475e+05,9.709747460000000428e+05,9.712163959999999497e+05,9.713244370000000345e+05,9.713318699999999953e+05,9.714817550000000047e+05,9.715664290000000037e+05,9.718001920000000391e+05,9.719748839999999618e+05,9.721015089999999618e+05,9.722541480000000447e+05,9.723390080000000307e+05,9.724468739999999525e+05,9.725197029999999795e+05,9.726789499999999534e+05,9.729661489999999758e+05,9.732284989999999525e+05,9.735315659999999916e+05,9.737465899999999674e+05,9.738070699999999488e+05,9.738225949999999721e+05,9.739523199999999488e+05,9.741383179999999702e+05,9.741142730000000447e+05,9.742956339999999618e+05,9.743786300000000047e+05,9.744175379999999423e+05,9.744117029999999795e+05,9.743334679999999935e+05,9.744529009999999544e+05,9.741934599999999627e+05,9.740092120000000577e+05,9.737864649999999674e+05,9.733279880000000121e+05,9.731536650000000373e+05,9.727822800000000279e+05,9.726265000000000000e+05,9.724210230000000447e+05,9.721035429999999469e+05,9.717634490000000224e+05,9.713295520000000251e+05,9.710777129999999888e+05,9.707293969999999972e+05,9.706222199999999721e+05,9.705846659999999683e+05,9.704370509999999776e+05,9.704152319999999600e+05,9.701807380000000121e+05,9.700109880000000121e+05,9.698861589999999851e+05,9.699569889999999432e+05,9.699892280000000028e+05,9.699055259999999544e+05,9.698931890000000130e+05,9.698816570000000065e+05,9.698305649999999441e+05,9.697504510000000009e+05,9.696471609999999637e+05,9.697275890000000363e+05,9.696390799999999581e+05,9.696596779999999562e+05,9.695144889999999432e+05,9.693298830000000307e+05,9.692971230000000214e+05,9.691875590000000084e+05,9.692852680000000400e+05,9.692992190000000410e+05,9.693609749999999767e+05,9.693782580000000307e+05,9.692669100000000326e+05,9.694247179999999935e+05,9.693915649999999441e+05,9.695037560000000522e+05,9.697238819999999832e+05,9.698410600000000559e+05,9.699165500000000466e+05,9.699541729999999516e+05,9.700590270000000019e+05,9.701768660000000382e+05,9.704673750000000000e+05,9.707362140000000363e+05,9.708137700000000186e+05,9.709070039999999572e+05,9.708917689999999711e+05,9.710192260000000242e+05,9.709819440000000177e+05,9.709967020000000484e+05,9.711995729999999749e+05,9.712691360000000568e+05,9.713500699999999488e+05,9.713699030000000494e+05,9.712659640000000363e+05,9.711547160000000149e+05,9.712575649999999441e+05,9.714914629999999888e+05,9.715343580000000075e+05,9.716396929999999702e+05,9.717401280000000261e+05,9.718001750000000466e+05,9.717947460000000428e+05,9.717702820000000065e+05,9.718757310000000289e+05,9.720365659999999916e+05,9.720716169999999693e+05,9.720071940000000177e+05,9.721128329999999842e+05,9.722093619999999646e+05,9.722477260000000242e+05,9.723910840000000317e+05,9.724061419999999925e+05,9.724843059999999823e+05,9.724690219999999972e+05,9.724067709999999497e+05,9.724267789999999804e+05,9.723344570000000531e+05,9.723005520000000251e+05,9.722839899999999907e+05,9.722498760000000475e+05,9.722327770000000019e+05,9.721186090000000549e+05,9.721135620000000345e+05,9.719644429999999702e+05,9.719421800000000512e+05,9.720761800000000512e+05,9.719684470000000438e+05,9.720213530000000028e+05,9.719767129999999888e+05,9.719107160000000149e+05,9.717719080000000540e+05,9.716866620000000112e+05,9.718001049999999814e+05,9.718081949999999488e+05,9.717778320000000531e+05,9.718583029999999562e+05,9.718856310000000522e+05,9.720262859999999637e+05,9.722201169999999693e+05,9.725876670000000158e+05,9.728276990000000224e+05,9.730220389999999898e+05,9.730622689999999711e+05,9.730756049999999814e+05,9.732956729999999516e+05,9.733719649999999674e+05,9.736083340000000317e+05,9.737567169999999460e+05,9.737376739999999991e+05,9.737893530000000028e+05,9.738954899999999907e+05,9.743441189999999478e+05,9.748280080000000307e+05,9.751791520000000019e+05,9.754036319999999832e+05,9.756228340000000317e+05,9.757858429999999935e+05,9.755785840000000317e+05,9.755122550000000047e+05,9.755253479999999981e+05,9.754415010000000475e+05,9.753349649999999674e+05,9.751429429999999702e+05,9.748288769999999786e+05,9.748492510000000475e+05,9.747464340000000084e+05,9.743026840000000084e+05,9.738840320000000065e+05,9.734343969999999972e+05,9.729845620000000345e+05,9.727538209999999963e+05,9.725972110000000102e+05,9.725106139999999432e+05,9.723708140000000130e+05,9.719483360000000102e+05,9.719859290000000037e+05,9.719585860000000102e+05,9.719582879999999423e+05,9.718930459999999730e+05,9.716864499999999534e+05,9.716059100000000326e+05,9.714093159999999916e+05,9.714880559999999823e+05,9.715639819999999600e+05,9.716074570000000531e+05,9.716136469999999972e+05,9.715430520000000251e+05,9.716352380000000121e+05,9.715345139999999665e+05,9.716115110000000568e+05,9.717923989999999758e+05,9.718261580000000540e+05,9.718933320000000531e+05,9.717889919999999693e+05,9.716812870000000112e+05,9.716814370000000345e+05,9.716842489999999525e+05,9.717817029999999795e+05,9.717412589999999618e+05,9.717344830000000075e+05,9.716166080000000075e+05,9.714336990000000224e+05,9.712331850000000559e+05,9.711100470000000205e+05,9.707637989999999991e+05,9.702370740000000224e+05,9.699288580000000075e+05,9.697762260000000242e+05,9.702573630000000121e+05,9.717966650000000373e+05,9.736121189999999478e+05,9.762586469999999972e+05,9.808198730000000214e+05,9.863534560000000056e+05,9.922777610000000568e+05,9.967538959999999497e+05,9.982460670000000391e+05,9.951278830000000307e+05,9.909423769999999786e+05,9.863337240000000456e+05,9.815600489999999991e+05,9.783827410000000382e+05,9.757015860000000102e+05,9.743105270000000019e+05,9.722701169999999693e+05,9.703188399999999674e+05,9.692869810000000289e+05,9.690165180000000400e+05,9.689768419999999460e+05,9.682669629999999888e+05,9.676847410000000382e+05,9.673726319999999832e+05,9.670500400000000373e+05,9.669132330000000075e+05,9.665593410000000149e+05,9.661198540000000503e+05,9.655193549999999814e+05,9.654722020000000484e+05,9.659846369999999879e+05,9.666843980000000447e+05,9.675868000000000466e+05,9.681038699999999953e+05,9.686161509999999544e+05,9.689636489999999758e+05,9.693430459999999730e+05,9.700085879999999888e+05,9.705187040000000270e+05,9.707431139999999432e+05,9.708402410000000382e+05,9.709656870000000345e+05,9.711009000000000233e+05,9.709958819999999832e+05,9.710353909999999451e+05,9.711665100000000093e+05,9.714891580000000540e+05,9.716613610000000335e+05,9.717774540000000270e+05,9.718751300000000047e+05,9.717668229999999749e+05,9.717813040000000037e+05,9.718243699999999953e+05,9.719894960000000428e+05,9.721704860000000335e+05,9.723339710000000196e+05,9.725710770000000484e+05,9.724421840000000084e+05,9.725388190000000177e+05,9.725625690000000177e+05,9.726406280000000261e+05,9.728438649999999907e+05,9.728354810000000289e+05,9.728461330000000307e+05,9.727274120000000112e+05,9.726090640000000130e+05,9.724734780000000028e+05,9.722921419999999925e+05,9.722237659999999451e+05,9.719752569999999832e+05,9.720078699999999953e+05,9.719095879999999888e+05,9.718038580000000075e+05,9.717624699999999721e+05,9.716969520000000484e+05,9.718991230000000214e+05,9.720711400000000140e+05,9.722530010000000475e+05,9.724474070000000065e+05,9.723188610000000335e+05,9.724247319999999600e+05,9.724847959999999730e+05,9.726937669999999925e+05,9.728368249999999534e+05,9.730364899999999907e+05,9.732367759999999544e+05,9.731853040000000037e+05,9.733090529999999562e+05,9.733741180000000168e+05,9.735717269999999553e+05,9.738351729999999516e+05,9.740020870000000577e+05,9.742889239999999991e+05,9.742731210000000428e+05,9.744660400000000373e+05,9.746264200000000419e+05,9.747725520000000251e+05,9.749849570000000531e+05,9.751833170000000391e+05,9.753656870000000345e+05,9.755308860000000568e+05,9.755805559999999823e+05,9.756366859999999870e+05,9.757920649999999441e+05,9.760683699999999953e+05,9.762716829999999609e+05,9.764902809999999590e+05,9.766970899999999674e+05,9.768224869999999646e+05,9.769456650000000373e+05,9.769245489999999991e+05,9.770832909999999683e+05,9.771449799999999814e+05,9.771515420000000158e+05,9.770191979999999749e+05,9.767471409999999451e+05,9.765446019999999553e+05,9.763053479999999981e+05,9.762616230000000214e+05,9.761690010000000475e+05,9.758806230000000214e+05,9.757007719999999972e+05,9.752150500000000466e+05,9.749001639999999898e+05,9.745405590000000084e+05,9.743388980000000447e+05,9.741673510000000242e+05,9.739894050000000279e+05,9.738276439999999711e+05,9.735259989999999525e+05,9.733184449999999488e+05,9.731093800000000047e+05,9.729040629999999655e+05,9.729467639999999665e+05,9.729462090000000317e+05,9.729295420000000158e+05,9.729221500000000233e+05,9.728389960000000428e+05,9.727842530000000261e+05,9.725494529999999795e+05,9.725721169999999693e+05,9.725679329999999609e+05,9.726466570000000065e+05,9.726068889999999665e+05,9.725599239999999991e+05,9.724200600000000559e+05,9.722186790000000037e+05,9.722850030000000261e+05,9.723349479999999749e+05,9.723402700000000186e+05,9.722597070000000531e+05,9.720697630000000354e+05,9.720820799999999581e+05,9.720158810000000522e+05,9.720451380000000354e+05,9.719251300000000047e+05,9.719438780000000261e+05,9.719462489999999525e+05,9.718913889999999665e+05,9.720049760000000242e+05,9.719670509999999776e+05,9.720884889999999432e+05,9.723097950000000419e+05,9.723694059999999590e+05,9.724959930000000168e+05,9.725302929999999469e+05,9.725842630000000354e+05,9.726775169999999925e+05,9.727594089999999851e+05,9.730117330000000075e+05,9.731384440000000177e+05,9.732561520000000019e+05,9.732371119999999646e+05,9.732097330000000075e+05,9.732072800000000279e+05,9.730228159999999916e+05,9.731607789999999804e+05,9.732342330000000075e+05,9.732520890000000363e+05,9.732224549999999581e+05,9.730850960000000196e+05,9.731597010000000009e+05,9.729781570000000065e+05,9.732131110000000335e+05,9.733150929999999935e+05,9.734357419999999693e+05,9.735444969999999739e+05,9.733632330000000075e+05,9.735084760000000242e+05,9.734842989999999991e+05,9.735587349999999860e+05,9.737007090000000317e+05,9.738314749999999767e+05,9.738386600000000326e+05,9.737823399999999674e+05,9.738351010000000242e+05,9.738461139999999432e+05,9.738720559999999823e+05,9.738404470000000438e+05,9.739161990000000224e+05,9.739743469999999506e+05,9.737817560000000522e+05,9.736624869999999646e+05,9.735447719999999972e+05,9.735419320000000298e+05,9.735262669999999925e+05,9.734314089999999851e+05,9.734631500000000233e+05,9.733665810000000056e+05,9.733071289999999572e+05,9.733287830000000540e+05,9.732777090000000317e+05,9.733643190000000177e+05,9.733394309999999823e+05,9.733864440000000177e+05,9.734347970000000205e+05,9.732838449999999721e+05,9.731517739999999758e+05,9.731214259999999776e+05,9.732634560000000056e+05,9.733883739999999525e+05,9.734877709999999497e+05,9.735919869999999646e+05,9.733755409999999683e+05,9.733415999999999767e+05,9.733223569999999600e+05,9.733842830000000540e+05,9.735609409999999916e+05,9.736745670000000391e+05,9.737877709999999497e+05,9.738522430000000168e+05,9.739184370000000345e+05,9.740118390000000363e+05,9.743449020000000019e+05,9.746051600000000326e+05,9.747266409999999451e+05,9.747422020000000484e+05,9.746398610000000335e+05,9.746753750000000000e+05,9.746333530000000028e+05,9.746292389999999432e+05,9.748761160000000382e+05,9.752354270000000251e+05,9.758957120000000577e+05,9.762493909999999451e+05,9.764306890000000130e+05,9.765455550000000512e+05,9.766890600000000559e+05,9.767642750000000233e+05,9.767202830000000540e+05,9.767655470000000205e+05,9.768286019999999553e+05,9.763377610000000568e+05,9.760297060000000056e+05,9.756545339999999851e+05,9.757218519999999553e+05,9.756604629999999888e+05,9.753705000000000000e+05,9.748682789999999804e+05,9.743018610000000335e+05,9.740111319999999832e+05,9.738221480000000447e+05,9.737833009999999776e+05,9.736795239999999758e+05,9.734775500000000466e+05,9.732108299999999581e+05,9.731458580000000075e+05,9.729608750000000000e+05,9.728313580000000075e+05,9.728559279999999562e+05,9.728593569999999600e+05,9.728406350000000093e+05,9.727329969999999739e+05,9.725437149999999674e+05,9.725532430000000168e+05,9.724811909999999916e+05,9.726349150000000373e+05,9.727724629999999888e+05,9.728447569999999832e+05,9.728877510000000475e+05,9.727726700000000419e+05,9.727447619999999879e+05,9.727287730000000447e+05,9.728016110000000335e+05,9.728342680000000400e+05,9.728104830000000075e+05,9.728676500000000233e+05,9.728546459999999497e+05,9.728439309999999823e+05,9.727326049999999814e+05,9.727105609999999870e+05,9.726892689999999711e+05,9.727094449999999488e+05,9.726311620000000112e+05,9.723780760000000009e+05,9.720488460000000196e+05,9.714504819999999600e+05,9.709299429999999702e+05,9.709841289999999572e+05,9.716608939999999711e+05,9.734154229999999516e+05,9.752613569999999600e+05,9.777736609999999637e+05,9.822287770000000019e+05,9.877545189999999711e+05,9.938200359999999637e+05,9.985055990000000456e+05,1.000253731000000029e+06,9.973001650000000373e+05,9.928346859999999870e+05,9.881011829999999609e+05,9.832954710000000196e+05,9.801667669999999925e+05,9.778354059999999590e+05,9.765831770000000251e+05,9.747242600000000093e+05,9.724486069999999600e+05,9.712503199999999488e+05,9.708806620000000112e+05,9.709338750000000000e+05,9.706202480000000214e+05,9.700503100000000559e+05,9.696969059999999590e+05,9.693656459999999497e+05,9.690371500000000233e+05,9.684357360000000335e+05,9.677735259999999544e+05,9.672604740000000456e+05,9.673778399999999674e+05,9.681259479999999749e+05,9.686506659999999683e+05,9.695006409999999451e+05,9.701226879999999655e+05,9.706466929999999702e+05,9.711693159999999916e+05,9.715547229999999981e+05,9.722909109999999637e+05,9.725379529999999795e+05,9.726820860000000102e+05,9.728623689999999478e+05,9.730608909999999451e+05,9.732769239999999991e+05,9.734744379999999655e+05,9.736112439999999478e+05,9.736252510000000475e+05,9.735901489999999758e+05,9.737277589999999618e+05,9.737184220000000205e+05,9.738449259999999776e+05,9.740241119999999646e+05,9.741828460000000196e+05,9.743901870000000345e+05,9.744139370000000345e+05,9.745320659999999916e+05,9.745057800000000279e+05,9.746833800000000047e+05,9.748861180000000168e+05,9.749568050000000512e+05,9.750964899999999907e+05,9.749863800000000047e+05,9.750687330000000075e+05,9.748843900000000140e+05,9.748265150000000140e+05,9.749462680000000400e+05,9.749554980000000214e+05,9.749355509999999776e+05,9.746388769999999786e+05,9.744062319999999600e+05,9.743084610000000102e+05,9.742213270000000484e+05,9.742511330000000307e+05,9.742427269999999553e+05,9.743356189999999478e+05,9.741813530000000028e+05,9.741647530000000261e+05,9.742441409999999451e+05,9.742144760000000242e+05,9.743864150000000373e+05,9.746083050000000512e+05,9.748046739999999991e+05,9.748914039999999804e+05,9.749422879999999423e+05,9.751459529999999795e+05,9.752597049999999581e+05,9.755148310000000056e+05,9.757715749999999534e+05,9.759801060000000289e+05,9.762187410000000382e+05,9.762252149999999674e+05,9.763534449999999488e+05,9.764596589999999851e+05,9.765102750000000233e+05,9.767482430000000168e+05,9.769341119999999646e+05,9.772391559999999590e+05,9.773429570000000531e+05,9.774629070000000065e+05,9.775080370000000112e+05,9.776782709999999497e+05,9.779826559999999590e+05,9.781624960000000428e+05,9.783550540000000037e+05,9.784404220000000205e+05,9.786099200000000419e+05,9.787838810000000522e+05,9.788625670000000391e+05,9.791383120000000345e+05,9.793799379999999655e+05,9.795105860000000102e+05,9.795404510000000009e+05,9.796264760000000242e+05,9.797983850000000093e+05,9.798091149999999907e+05,9.799766609999999637e+05,9.800270189999999711e+05,9.798543499999999767e+05,9.795112530000000261e+05,9.791424610000000102e+05,9.790109520000000484e+05,9.786586800000000512e+05,9.786250100000000093e+05,9.784833390000000363e+05,9.783022700000000186e+05,9.781361570000000065e+05,9.778207399999999907e+05,9.775603769999999786e+05,9.772598680000000168e+05,9.771989860000000335e+05,9.773354699999999721e+05,9.773714499999999534e+05,9.772679969999999739e+05,9.768961890000000130e+05,9.767582280000000028e+05,9.767189799999999814e+05,9.767503209999999963e+05,9.769042229999999981e+05,9.769408719999999739e+05,9.769429370000000345e+05,9.767277680000000400e+05,9.766004729999999981e+05,9.765843800000000047e+05,9.764100050000000047e+05,9.764280770000000484e+05,9.765185030000000261e+05,9.766883639999999432e+05,9.765975150000000140e+05,9.764328129999999655e+05,9.764251169999999693e+05,9.764003079999999609e+05,9.765690879999999888e+05,9.766728499999999767e+05,9.767186369999999879e+05,9.767659409999999916e+05,9.765541260000000475e+05,9.765839390000000130e+05,9.765299120000000112e+05,9.766084050000000279e+05,9.766866990000000224e+05,9.768103390000000363e+05,9.770066149999999907e+05,9.771971509999999544e+05,9.772740870000000577e+05,9.772965280000000494e+05,9.775188399999999674e+05,9.777386360000000568e+05,9.778188699999999953e+05,9.780542739999999758e+05,9.780188619999999646e+05,9.778909479999999749e+05,9.778992349999999860e+05,9.779470060000000522e+05,9.781322650000000140e+05,9.783115039999999572e+05,9.784290940000000410e+05,9.782467619999999879e+05,9.781555420000000158e+05,9.781572589999999618e+05,9.781051500000000233e+05,9.782863070000000298e+05,9.782611809999999823e+05,9.783752010000000009e+05,9.783909830000000075e+05,9.784417879999999423e+05,9.785059449999999488e+05,9.785779449999999488e+05,9.787049150000000373e+05,9.788037659999999451e+05,9.789331289999999572e+05,9.790044919999999693e+05,9.789751909999999916e+05,9.790219409999999916e+05,9.790152789999999804e+05,9.793092219999999506e+05,9.795141350000000093e+05,9.795997449999999953e+05,9.796805379999999423e+05,9.796418479999999981e+05,9.795728040000000037e+05,9.795042830000000540e+05,9.794721319999999832e+05,9.794477550000000047e+05,9.794540779999999795e+05,9.795457099999999627e+05,9.792419919999999693e+05,9.789274560000000056e+05,9.787969270000000251e+05,9.787022519999999786e+05,9.789616509999999544e+05,9.789767140000000363e+05,9.789274799999999814e+05,9.787616589999999851e+05,9.786836770000000251e+05,9.787613969999999972e+05,9.786075679999999702e+05,9.786560849999999627e+05,9.787182260000000242e+05,9.788765450000000419e+05,9.788611310000000522e+05,9.787951949999999488e+05,9.787923149999999441e+05,9.787777750000000233e+05,9.788596700000000419e+05,9.790198699999999953e+05,9.790435400000000373e+05,9.790248140000000130e+05,9.788790749999999534e+05,9.789739579999999842e+05,9.789793029999999562e+05,9.790525169999999925e+05,9.790112380000000121e+05,9.790769309999999823e+05,9.792792349999999860e+05,9.794651809999999823e+05,9.795983170000000391e+05,9.797022530000000261e+05,9.798527120000000577e+05,9.802963299999999581e+05,9.803408510000000242e+05,9.802238449999999721e+05,9.800774290000000037e+05,9.801926990000000224e+05,9.801923780000000261e+05,9.801376609999999637e+05,9.803071250000000000e+05,9.804947630000000354e+05,9.809356589999999851e+05,9.810995309999999590e+05,9.810580209999999497e+05,9.810875139999999665e+05,9.812933919999999925e+05,9.816333009999999776e+05,9.816978129999999655e+05,9.817483930000000400e+05,9.817260729999999749e+05,9.814287120000000577e+05,9.811441550000000279e+05,9.808233989999999758e+05,9.807617859999999637e+05,9.808103810000000522e+05,9.806709209999999730e+05,9.802618869999999879e+05,9.799594229999999516e+05,9.796825890000000363e+05,9.792703000000000466e+05,9.790637619999999879e+05,9.791452249999999767e+05,9.789659930000000168e+05,9.787328660000000382e+05,9.784560540000000037e+05,9.783213390000000363e+05,9.782069679999999935e+05,9.781785749999999534e+05,9.780872630000000354e+05,9.778795450000000419e+05,9.780093270000000484e+05,9.779020670000000391e+05,9.778895799999999581e+05,9.777830400000000373e+05,9.777048159999999916e+05,9.777466920000000391e+05,9.777044620000000577e+05,9.776705550000000512e+05,9.776197340000000549e+05,9.775300370000000112e+05,9.776318020000000251e+05,9.774902020000000484e+05,9.777146049999999814e+05,9.777679080000000540e+05,9.777785999999999767e+05,9.776958649999999907e+05,9.775414050000000279e+05,9.774879250000000466e+05,9.773308360000000102e+05,9.773508669999999693e+05,9.774772519999999786e+05,9.774612399999999907e+05,9.773581609999999637e+05,9.771851709999999730e+05,9.770648220000000438e+05,9.764812360000000335e+05,9.758587079999999842e+05,9.755563229999999749e+05,9.757403499999999767e+05,9.768254109999999637e+05,9.786623360000000102e+05,9.805090300000000279e+05,9.837471480000000447e+05,9.887473739999999525e+05,9.945501670000000158e+05,1.000260922000000020e+06,1.003951996000000043e+06,1.003487278999999980e+06,9.993137249999999767e+05,9.947387360000000335e+05,9.897007589999999618e+05,9.858210060000000522e+05,9.830210339999999851e+05,9.812287989999999991e+05,9.797879749999999767e+05,9.776035790000000270e+05,9.758905790000000270e+05,9.749366459999999497e+05,9.749691149999999907e+05,9.750238909999999451e+05,9.743471589999999851e+05,9.737884819999999600e+05,9.734205359999999637e+05,9.730630450000000419e+05,9.726180529999999562e+05,9.721306169999999693e+05,9.716369699999999721e+05,9.712454050000000279e+05,9.712674849999999860e+05,9.717118140000000130e+05,9.724497140000000363e+05,9.730630339999999851e+05,9.736330590000000084e+05,9.739816110000000335e+05,9.742333649999999907e+05,9.747047550000000047e+05,9.753979960000000428e+05,9.757213750000000000e+05,9.758153170000000391e+05,9.759529880000000121e+05,9.761359259999999776e+05,9.766570379999999423e+05,9.767851160000000382e+05,9.765813460000000196e+05,9.766466130000000121e+05,9.766660470000000205e+05,9.766651899999999441e+05,9.770148560000000289e+05,9.771886199999999953e+05,9.773062469999999739e+05,9.772944880000000121e+05,9.773798540000000503e+05,9.775859070000000065e+05,9.772548340000000317e+05,9.774073689999999478e+05,9.774415110000000568e+05,9.773565999999999767e+05,9.772764290000000037e+05,9.770265270000000019e+05,9.768739399999999441e+05,9.767306230000000214e+05,9.767259710000000196e+05,9.767249599999999627e+05,9.766986520000000019e+05,9.767488560000000289e+05,9.766688730000000214e+05,9.766738360000000102e+05,9.767128530000000028e+05,9.766690690000000177e+05,9.770814279999999562e+05,9.785629949999999953e+05,9.786858590000000549e+05,9.788267389999999432e+05,9.788057909999999683e+05,9.789879320000000298e+05,9.791228260000000009e+05,9.795144620000000577e+05,9.796855050000000047e+05,9.799717349999999860e+05,9.799719220000000205e+05,9.801048029999999562e+05,9.801570050000000047e+05,9.804214080000000540e+05,9.806731670000000158e+05,9.810676949999999488e+05,9.812249880000000121e+05,9.813667280000000028e+05,9.812478569999999600e+05,9.815184009999999544e+05,9.813029189999999944e+05,9.816840609999999870e+05,9.804572389999999432e+05,9.792789989999999525e+05,9.791312110000000102e+05,9.785781670000000158e+05,9.784763360000000102e+05,9.780189070000000065e+05,9.780045870000000577e+05,9.777917619999999879e+05,9.776172619999999879e+05,9.774185760000000009e+05,9.772062090000000317e+05,9.769986700000000419e+05,9.768725450000000419e+05,9.768106520000000019e+05,9.768176439999999711e+05,9.767860520000000251e+05,9.767219359999999870e+05,9.765160400000000373e+05,9.765331530000000494e+05,9.764108630000000121e+05,9.764090200000000186e+05,9.764365230000000447e+05,9.762724819999999600e+05,9.762615540000000037e+05,9.760665749999999534e+05,9.759190189999999711e+05,9.757900379999999423e+05,9.757002719999999972e+05,9.756683410000000149e+05,9.756700570000000298e+05,9.757935439999999944e+05,9.757160189999999711e+05,9.754490459999999730e+05,9.754746999999999534e+05,9.754208610000000335e+05,9.755561670000000158e+05,9.756658860000000568e+05,9.758004769999999553e+05,9.758162539999999572e+05,9.756857839999999851e+05,9.757848560000000289e+05,9.758558040000000037e+05,9.761131580000000540e+05,9.762888669999999693e+05,9.763665709999999963e+05,9.764397859999999637e+05,9.764518719999999739e+05,9.766052029999999795e+05,9.767027809999999590e+05,9.766849270000000251e+05,9.768743710000000428e+05,9.769901160000000382e+05,9.769880709999999963e+05,9.768364100000000326e+05,9.769408630000000121e+05,9.768651629999999423e+05,9.768859949999999953e+05,9.770454729999999981e+05,9.772991509999999544e+05,9.773426779999999562e+05,9.771920899999999674e+05,9.771769849999999860e+05,9.771660180000000400e+05,9.772929320000000298e+05,9.774762550000000047e+05,9.777566189999999478e+05,9.777662449999999953e+05,9.775960609999999870e+05,9.776907500000000000e+05,9.776765110000000568e+05,9.777510100000000093e+05,9.778750320000000065e+05,9.780890590000000084e+05,9.781419560000000056e+05,9.778445270000000019e+05,9.778758959999999497e+05,9.778316620000000112e+05,9.778764699999999721e+05,9.778905050000000047e+05,9.777723599999999860e+05,9.777622959999999730e+05,9.775948680000000168e+05,9.774757260000000242e+05,9.774504220000000205e+05,9.773394780000000028e+05,9.773932610000000568e+05,9.773216489999999758e+05,9.773725130000000354e+05,9.773422330000000075e+05,9.772642820000000065e+05,9.771627989999999991e+05,9.770590130000000354e+05,9.771684869999999646e+05,9.771705209999999497e+05,9.773557700000000186e+05,9.773690509999999776e+05,9.772148120000000345e+05,9.771861239999999525e+05,9.771624690000000410e+05,9.772365389999999898e+05,9.772458719999999739e+05,9.773455010000000475e+05,9.773354290000000037e+05,9.772094729999999981e+05,9.772289159999999683e+05,9.771182669999999925e+05,9.770710450000000419e+05,9.772257120000000577e+05,9.773503000000000466e+05,9.773946300000000047e+05,9.771790339999999851e+05,9.772207299999999814e+05,9.771152659999999451e+05,9.771453959999999497e+05,9.772967190000000410e+05,9.774253240000000224e+05,9.774645919999999460e+05,9.773513590000000549e+05,9.774972809999999590e+05,9.778082060000000056e+05,9.778917389999999432e+05,9.781104749999999767e+05,9.785067330000000075e+05,9.787365300000000279e+05,9.786098710000000428e+05,9.785983449999999721e+05,9.786359830000000075e+05,9.787411899999999441e+05,9.788730069999999832e+05,9.788848129999999655e+05,9.789003440000000410e+05,9.791407120000000577e+05,9.795516999999999534e+05,9.799421620000000112e+05,9.800806820000000298e+05,9.804208249999999534e+05,9.807748329999999842e+05,9.807966859999999870e+05,9.808481700000000419e+05,9.807470389999999898e+05,9.807702619999999879e+05,9.805824769999999553e+05,9.803735540000000037e+05,9.802741589999999851e+05,9.800991689999999944e+05,9.801386060000000289e+05,9.798327060000000056e+05,9.795212970000000205e+05,9.791383599999999860e+05,9.787690760000000009e+05,9.784351139999999432e+05,9.783001069999999600e+05,9.782601829999999609e+05,9.780519429999999702e+05,9.777878590000000549e+05,9.776076600000000326e+05,9.774802809999999590e+05,9.775245729999999749e+05,9.775183610000000335e+05,9.775281659999999683e+05,9.773134560000000056e+05,9.771070679999999702e+05,9.770884290000000037e+05,9.770153930000000400e+05,9.771322589999999618e+05,9.771675309999999590e+05,9.771542489999999525e+05,9.772789320000000298e+05,9.771546550000000279e+05,9.771323800000000047e+05,9.771099599999999627e+05,9.772178950000000186e+05,9.772394590000000317e+05,9.773246400000000140e+05,9.774353860000000568e+05,9.774747290000000503e+05,9.773602140000000363e+05,9.772302079999999842e+05,9.771946909999999916e+05,9.771950320000000065e+05,9.771249549999999581e+05,9.772193399999999674e+05,9.770091319999999832e+05,9.769019799999999814e+05,9.768193449999999721e+05,9.767273240000000224e+05,9.763567870000000112e+05,9.758331339999999618e+05,9.755211199999999953e+05,9.753703669999999693e+05,9.762888669999999693e+05,9.781396250000000000e+05,9.799716269999999786e+05,9.831263839999999618e+05,9.880494139999999898e+05,9.938104270000000251e+05,9.994495370000000112e+05,1.003521270000000019e+06,1.003917542999999947e+06,1.000188150000000023e+06,9.959804170000000158e+05,9.912704080000000540e+05,9.871071609999999637e+05,9.841782460000000428e+05,9.819122240000000456e+05,9.804936739999999991e+05,9.782805960000000196e+05,9.764159139999999898e+05,9.755795489999999991e+05,9.755873889999999665e+05,9.756521339999999618e+05,9.747516080000000075e+05,9.741060150000000140e+05,9.737833360000000102e+05,9.734281369999999879e+05,9.732784790000000503e+05,9.728349840000000549e+05,9.722053800000000047e+05,9.714129490000000224e+05,9.717367510000000475e+05,9.723704899999999907e+05,9.730764660000000149e+05,9.738783329999999842e+05,9.745634399999999441e+05,9.750484120000000112e+05,9.752502410000000382e+05,9.756184860000000335e+05,9.763524919999999693e+05,9.766391260000000475e+05,9.770335239999999758e+05,9.772675400000000373e+05,9.774272099999999627e+05,9.773549520000000484e+05,9.774289290000000037e+05,9.774570790000000270e+05,9.774493020000000251e+05,9.776516119999999646e+05,9.778899490000000224e+05,9.780310030000000261e+05,9.781990359999999637e+05,9.780156850000000559e+05,9.781533969999999972e+05,9.781289449999999488e+05,9.782133429999999935e+05,9.784750289999999804e+05,9.786212319999999600e+05,9.787989729999999981e+05,9.788420570000000298e+05,9.789277889999999898e+05,9.788129270000000251e+05,9.789031160000000382e+05,9.789015409999999683e+05,9.788892780000000494e+05,9.788825640000000130e+05,9.785666539999999804e+05,9.782990019999999786e+05,9.781730559999999823e+05,9.782132619999999879e+05,9.782595370000000112e+05,9.781960520000000251e+05,9.779396199999999953e+05,9.778475039999999572e+05,9.777904889999999432e+05,9.777874340000000084e+05,9.778091199999999953e+05,9.780125150000000140e+05,9.781973619999999646e+05,9.783785470000000205e+05,9.784895420000000158e+05,9.785869560000000056e+05,9.784932229999999981e+05,9.785926999999999534e+05,9.788040979999999981e+05,9.791275810000000056e+05,9.792794610000000102e+05,9.794929120000000112e+05,9.794315300000000279e+05,9.797027560000000522e+05,9.797184139999999898e+05,9.799489370000000345e+05,9.800915270000000019e+05,9.805311670000000158e+05,9.806189459999999963e+05,9.807204290000000037e+05,9.807570309999999590e+05,9.810433569999999600e+05,9.807947120000000577e+05,9.817902419999999693e+05,9.837818590000000549e+05,9.835598680000000168e+05,9.833608909999999451e+05,9.831178540000000503e+05,9.831128310000000056e+05,9.829264089999999851e+05,9.829373229999999749e+05,9.827332539999999572e+05,9.826537110000000102e+05,9.822558020000000251e+05,9.819947700000000186e+05,9.816064070000000065e+05,9.812912290000000503e+05,9.811026650000000373e+05,9.810187870000000112e+05,9.808875790000000270e+05,9.806391809999999823e+05,9.802447330000000075e+05,9.800648909999999451e+05,9.798158669999999693e+05,9.798123730000000214e+05,9.796968349999999627e+05,9.796573410000000149e+05,9.795840559999999823e+05,9.793407929999999469e+05,9.792804599999999627e+05,9.791323969999999972e+05,9.790655709999999963e+05,9.791534030000000494e+05,9.791615259999999544e+05,9.791692190000000410e+05,9.789822820000000065e+05,9.789342199999999721e+05,9.787922369999999646e+05,9.787557460000000428e+05,9.788198340000000317e+05,9.788032669999999925e+05,9.787475060000000522e+05,9.785748649999999907e+05,9.785257619999999879e+05,9.786163009999999776e+05,9.785566319999999832e+05,9.786240929999999935e+05,9.787931509999999544e+05,9.789226899999999441e+05,9.789304379999999655e+05,9.788603029999999562e+05,9.789233209999999963e+05,9.788408179999999702e+05,9.789769359999999870e+05,9.790860790000000270e+05,9.792894089999999851e+05,9.794039649999999674e+05,9.794547099999999627e+05,9.793984849999999860e+05,9.794453159999999916e+05,9.796502299999999814e+05,9.800095379999999423e+05,9.801588260000000009e+05,9.800655829999999842e+05,9.800585379999999423e+05,9.799847650000000140e+05,9.799911319999999832e+05,9.801143540000000503e+05,9.802641689999999944e+05,9.803587970000000205e+05,9.805000489999999991e+05,9.804210620000000345e+05,9.803887519999999786e+05,9.804402619999999879e+05,9.806097020000000484e+05,9.808410990000000456e+05,9.809659270000000251e+05,9.810846439999999711e+05,9.810107190000000410e+05,9.809891679999999469e+05,9.810559570000000531e+05,9.810052580000000307e+05,9.810025709999999963e+05,9.811158639999999432e+05,9.811706899999999441e+05,9.810939070000000065e+05,9.808888059999999823e+05,9.807965609999999870e+05,9.805556310000000522e+05,9.806406080000000075e+05,9.803693109999999870e+05,9.802825899999999674e+05,9.802043009999999776e+05,9.801655860000000102e+05,9.801011580000000540e+05,9.800322480000000214e+05,9.802312210000000196e+05,9.803282600000000093e+05,9.804660039999999572e+05,9.803855969999999506e+05,9.800622619999999879e+05,9.800862349999999860e+05,9.800559819999999600e+05,9.801475699999999488e+05,9.802660309999999590e+05,9.803745400000000373e+05,9.804288680000000168e+05,9.802391310000000522e+05,9.801963919999999925e+05,9.801542249999999767e+05,9.801368079999999609e+05,9.801238440000000410e+05,9.801005000000000000e+05,9.803353249999999534e+05,9.801393889999999665e+05,9.799924229999999516e+05,9.800433449999999721e+05,9.801752680000000400e+05,9.804610810000000056e+05,9.807611339999999618e+05,9.808445289999999804e+05,9.809264840000000549e+05,9.810651060000000289e+05,9.811993839999999618e+05,9.812089830000000075e+05,9.814067399999999907e+05,9.816311949999999488e+05,9.818068630000000121e+05,9.816085899999999674e+05,9.815568370000000577e+05,9.818210110000000568e+05,9.822094080000000540e+05,9.828289000000000233e+05,9.830091659999999683e+05,9.831803159999999916e+05,9.834997070000000531e+05,9.833370649999999441e+05,9.832419070000000065e+05,9.831555820000000531e+05,9.832978590000000549e+05,9.834387070000000531e+05,9.833246119999999646e+05,9.831677029999999795e+05,9.827875699999999488e+05,9.826764980000000214e+05,9.824844640000000363e+05,9.821057269999999553e+05,9.819462859999999637e+05,9.815053479999999981e+05,9.811384050000000279e+05,9.807310720000000438e+05,9.805715550000000512e+05,9.803259300000000512e+05,9.800741650000000373e+05,9.800416269999999786e+05,9.799883610000000335e+05,9.800575150000000140e+05,9.798679719999999506e+05,9.795863199999999488e+05,9.794585030000000261e+05,9.792330690000000177e+05,9.793403090000000084e+05,9.793710870000000577e+05,9.794131970000000438e+05,9.791377730000000447e+05,9.791232689999999711e+05,9.792207780000000494e+05,9.791337510000000475e+05,9.792340309999999590e+05,9.793745280000000494e+05,9.794902659999999451e+05,9.795345150000000140e+05,9.793847789999999804e+05,9.794926330000000307e+05,9.794253179999999702e+05,9.793887240000000456e+05,9.793693939999999711e+05,9.791939109999999637e+05,9.787651030000000028e+05,9.779605230000000447e+05,9.776139949999999953e+05,9.776477260000000242e+05,9.786536230000000214e+05,9.804902730000000447e+05,9.825159599999999627e+05,9.856439960000000428e+05,9.903204309999999823e+05,9.959254960000000428e+05,1.001693934000000008e+06,1.005734753000000026e+06,1.006189672999999952e+06,1.002542469000000041e+06,9.983789549999999581e+05,9.934905110000000568e+05,9.891796040000000503e+05,9.863838719999999739e+05,9.841368100000000559e+05,9.827468490000000456e+05,9.806641570000000065e+05,9.789932240000000456e+05,9.780531069999999600e+05,9.777149810000000289e+05,9.776811999999999534e+05,9.769604100000000326e+05,9.765038869999999879e+05,9.763398930000000400e+05,9.759779640000000363e+05,9.757340529999999562e+05,9.749530289999999804e+05,9.743163939999999711e+05,9.737332010000000009e+05,9.739996679999999469e+05,9.746371289999999572e+05,9.753741589999999851e+05,9.762675479999999516e+05,9.766079470000000438e+05,9.770681319999999832e+05,9.773757210000000196e+05,9.778531230000000214e+05,9.786628630000000121e+05,9.790842099999999627e+05,9.794024390000000130e+05,9.793590309999999590e+05,9.794129159999999683e+05,9.795731909999999916e+05,9.796432500000000000e+05,9.799393909999999451e+05,9.801771800000000512e+05,9.804144259999999776e+05,9.804570770000000484e+05,9.803211750000000466e+05,9.804654810000000289e+05,9.803229710000000196e+05,9.805204340000000084e+05,9.806546580000000540e+05,9.808355659999999916e+05,9.806997140000000363e+05,9.804917580000000307e+05,9.805782090000000317e+05,9.806394189999999944e+05,9.807194089999999851e+05,9.809327079999999842e+05,9.809868149999999441e+05,9.810247190000000410e+05,9.808726759999999776e+05,9.808354799999999814e+05,9.807278919999999925e+05,9.806196480000000447e+05,9.805743479999999981e+05,9.805114889999999432e+05,9.803428029999999562e+05,9.802047290000000503e+05,9.802407859999999637e+05,9.802075969999999506e+05,9.800542569999999832e+05,9.801514170000000158e+05,9.802500189999999711e+05,9.803731570000000065e+05,9.803023490000000456e+05,9.804104960000000428e+05,9.803941139999999432e+05,9.804016369999999879e+05,9.806841049999999814e+05,9.810152340000000549e+05,9.811575289999999804e+05,9.810926369999999879e+05,9.813038410000000149e+05,9.814564429999999702e+05,9.815513680000000168e+05,9.818007750000000233e+05,9.819743000000000466e+05,9.821461400000000140e+05,9.823438159999999916e+05,9.822344529999999795e+05,9.823632129999999888e+05,9.825702959999999730e+05,9.828731310000000522e+05,9.831642310000000289e+05,9.831782830000000540e+05,9.832562120000000577e+05,9.831563299999999581e+05,9.833523469999999506e+05,9.834641859999999870e+05,9.837371639999999898e+05,9.840030990000000456e+05,9.841702789999999804e+05,9.843541239999999525e+05,9.843849640000000363e+05,9.844225150000000140e+05,9.846320609999999870e+05,9.848630500000000466e+05,9.851080649999999441e+05,9.852917160000000149e+05,9.854476160000000382e+05,9.854164540000000270e+05,9.854364059999999590e+05,9.853386709999999730e+05,9.852598159999999916e+05,9.853227759999999544e+05,9.853787900000000373e+05,9.852688140000000130e+05,9.849511559999999590e+05,9.846911430000000400e+05,9.844876189999999478e+05,9.841321959999999963e+05,9.838909969999999739e+05,9.837385990000000456e+05,9.836064479999999749e+05,9.832785259999999544e+05,9.829823699999999953e+05,9.827251670000000158e+05,9.823511620000000112e+05,9.821935230000000447e+05,9.822644849999999860e+05,9.822063699999999953e+05,9.820492169999999460e+05,9.818824159999999683e+05,9.816481160000000382e+05,9.813833699999999953e+05,9.815059399999999441e+05,9.814148590000000549e+05,9.811515969999999506e+05,9.810895110000000568e+05,9.809568209999999963e+05,9.808709629999999888e+05,9.808143209999999963e+05,9.807306439999999711e+05,9.808510529999999562e+05,9.809391840000000084e+05,9.810232539999999572e+05,9.808115159999999451e+05,9.807426609999999637e+05,9.807415659999999916e+05,9.807346829999999609e+05,9.808768719999999739e+05,9.810938299999999581e+05,9.812770579999999609e+05,9.813283760000000475e+05,9.811806189999999478e+05,9.813294819999999600e+05,9.814208279999999795e+05,9.815621350000000093e+05,9.817340250000000233e+05,9.818543410000000149e+05,9.819728120000000345e+05,9.819196080000000075e+05,9.818918669999999693e+05,9.817836300000000047e+05,9.818176169999999693e+05,9.820612859999999637e+05,9.820693329999999842e+05,9.819445670000000391e+05,9.818472389999999432e+05,9.819384780000000028e+05,9.818405590000000084e+05,9.818841970000000438e+05,9.820008090000000084e+05,9.821413580000000075e+05,9.821417639999999665e+05,9.821271080000000075e+05,9.821625849999999627e+05,9.820401080000000075e+05,9.821411369999999879e+05,9.824445829999999842e+05,9.826101230000000214e+05,9.826437439999999478e+05,9.824426840000000084e+05,9.825061010000000242e+05,9.826414980000000214e+05,9.825847399999999907e+05,9.826988340000000317e+05,9.827626770000000251e+05,9.827869660000000149e+05,9.826309340000000084e+05,9.826139930000000168e+05,9.826022750000000233e+05,9.822500159999999451e+05,9.823410180000000400e+05,9.820899340000000084e+05,9.820355749999999534e+05,9.818903299999999581e+05,9.818574399999999441e+05,9.817671149999999907e+05,9.818096899999999441e+05,9.820071049999999814e+05,9.820849710000000196e+05,9.821241080000000075e+05,9.821251829999999609e+05,9.820186350000000093e+05,9.820143750000000000e+05,9.820529780000000028e+05,9.820118009999999776e+05,9.821289050000000279e+05,9.821443310000000056e+05,9.821834710000000196e+05,9.820499699999999721e+05,9.820519540000000270e+05,9.819270679999999702e+05,9.819377789999999804e+05,9.818896380000000354e+05,9.819326559999999590e+05,9.820469840000000549e+05,9.819338240000000224e+05,9.818504949999999953e+05,9.819124259999999776e+05,9.817614810000000289e+05,9.819111090000000549e+05,9.818699270000000251e+05,9.818986219999999739e+05,9.820025779999999795e+05,9.818553800000000047e+05,9.817997179999999935e+05,9.816926539999999804e+05,9.817867480000000214e+05,9.818976739999999991e+05,9.819682070000000531e+05,9.819811080000000075e+05,9.818795550000000512e+05,9.818578279999999795e+05,9.817260960000000196e+05,9.817022800000000279e+05,9.817496570000000065e+05,9.817495219999999972e+05,9.817952650000000140e+05,9.816549209999999730e+05,9.817553780000000261e+05,9.818586639999999898e+05,9.820253329999999842e+05,9.823662140000000363e+05,9.825881979999999749e+05,9.827451629999999423e+05,9.828278869999999879e+05,9.829620629999999655e+05,9.829791500000000233e+05,9.830665949999999721e+05,9.832716389999999665e+05,9.832174309999999823e+05,9.832992659999999451e+05,9.834749570000000531e+05,9.837841770000000251e+05,9.843047179999999935e+05,9.845327129999999888e+05,9.847393179999999702e+05,9.844871700000000419e+05,9.842771620000000112e+05,9.841605999999999767e+05,9.837849220000000205e+05,9.835225790000000270e+05,9.831617469999999739e+05,9.826002619999999879e+05,9.823072669999999925e+05,9.822581040000000503e+05,9.821458519999999553e+05,9.818289790000000503e+05,9.815540089999999618e+05,9.813736339999999618e+05,9.813167449999999953e+05,9.813098149999999441e+05,9.814271639999999898e+05,9.812805520000000251e+05,9.809627469999999739e+05,9.809821720000000205e+05,9.808368810000000522e+05,9.807628000000000466e+05,9.809676149999999907e+05,9.811904939999999478e+05,9.811405559999999823e+05,9.809968519999999553e+05,9.809940180000000400e+05,9.809452299999999814e+05,9.810175779999999795e+05,9.810534350000000559e+05,9.809099420000000391e+05,9.809636360000000568e+05,9.808945960000000196e+05,9.807179270000000251e+05,9.805202859999999637e+05,9.804653699999999953e+05,9.804580550000000512e+05,9.799493719999999739e+05,9.794859699999999721e+05,9.791594749999999767e+05,9.792067140000000363e+05,9.803898449999999721e+05,9.823204070000000065e+05,9.843347830000000540e+05,9.878417110000000102e+05,9.929160790000000270e+05,9.986262260000000242e+05,1.003948064999999944e+06,1.007546224000000046e+06,1.007262915000000037e+06,1.003350978000000003e+06,9.994350709999999963e+05,9.946873989999999758e+05,9.908815840000000317e+05,9.880365330000000540e+05,9.858930910000000149e+05,9.844249239999999991e+05,9.821450309999999590e+05,9.804312070000000531e+05,9.795315359999999637e+05,9.795501450000000186e+05,9.791878900000000140e+05,9.783389370000000345e+05,9.779612199999999721e+05,9.775244760000000242e+05,9.773790790000000270e+05,9.770655030000000261e+05,9.765875559999999823e+05,9.758295039999999572e+05,9.752613020000000251e+05,9.754368100000000559e+05,9.759632560000000522e+05,9.767853429999999935e+05,9.775966759999999776e+05,9.781550470000000205e+05,9.786121130000000121e+05,9.788886289999999572e+05,9.795119930000000168e+05,9.802418199999999488e+05,9.806112210000000196e+05,9.808781019999999553e+05,9.812027680000000400e+05,9.812941189999999478e+05,9.813137149999999674e+05,9.812628229999999749e+05,9.813277010000000009e+05,9.814475450000000419e+05,9.816901139999999432e+05,9.819189849999999860e+05,9.821025849999999627e+05,9.820916310000000522e+05,9.821244370000000345e+05,9.822268029999999562e+05,9.820229679999999935e+05,9.825806759999999776e+05,9.830292210000000196e+05,9.829756899999999441e+05,9.827178079999999609e+05,9.826066520000000019e+05,9.825938930000000400e+05,9.824245150000000140e+05,9.826085910000000149e+05,9.825746130000000121e+05,9.823933549999999814e+05,9.822718460000000196e+05,9.823903959999999497e+05,9.825494590000000317e+05,9.825468900000000140e+05,9.826743349999999627e+05,9.829037049999999581e+05,9.831622229999999981e+05,9.832408109999999870e+05,9.833472110000000102e+05,9.835399120000000112e+05,9.835792129999999888e+05,9.838259259999999776e+05,9.841281820000000298e+05,9.843954390000000130e+05,9.844841990000000224e+05,9.844230770000000484e+05,9.847237070000000531e+05,9.848979370000000345e+05,9.851147190000000410e+05,9.854208959999999497e+05,9.857918120000000345e+05,9.859536800000000512e+05,9.861063649999999907e+05,9.861503120000000345e+05,9.862221489999999758e+05,9.862721759999999776e+05,9.872442550000000047e+05,9.884100450000000419e+05,9.884769409999999916e+05,9.886773370000000577e+05,9.887737349999999860e+05,9.891319020000000019e+05,9.891472850000000326e+05,9.894520670000000391e+05,9.895797630000000354e+05,9.898774939999999478e+05,9.898579949999999953e+05,9.899040649999999441e+05,9.899508109999999870e+05,9.896681620000000112e+05,9.896491790000000037e+05,9.896256069999999600e+05,9.896624590000000317e+05,9.896943070000000298e+05,9.894305150000000140e+05,9.891793029999999562e+05,9.888966970000000438e+05,9.887799819999999600e+05,9.888395470000000205e+05,9.889678100000000559e+05,9.886701999999999534e+05,9.883807299999999814e+05,9.881799810000000289e+05,9.880500509999999776e+05,9.880737669999999925e+05,9.880023399999999674e+05,9.879894239999999991e+05,9.879457179999999935e+05,9.879409390000000130e+05,9.879466450000000186e+05,9.879443680000000168e+05,9.880368590000000549e+05,9.880817269999999553e+05,9.882143260000000009e+05,9.882768889999999665e+05,9.881198229999999749e+05,9.881108260000000009e+05,9.883679490000000224e+05,9.881609329999999609e+05,9.884066380000000354e+05,9.885909760000000242e+05,9.886205180000000400e+05,9.885807260000000242e+05,9.884614989999999525e+05,9.883426239999999525e+05,9.883941909999999916e+05,9.884293410000000149e+05,9.882940450000000419e+05,9.885440000000000000e+05,9.886492169999999460e+05,9.886685699999999488e+05,9.888285949999999721e+05,9.886342780000000494e+05,9.885963680000000168e+05,9.887042939999999944e+05,9.889525230000000447e+05,9.890899570000000531e+05,9.890485479999999516e+05,9.890971820000000298e+05,9.892072879999999423e+05,9.891871770000000251e+05,9.894880649999999441e+05,9.896651360000000568e+05,9.898265060000000522e+05,9.898186739999999991e+05,9.900013000000000466e+05,9.899974100000000326e+05,9.901142290000000503e+05,9.901768140000000130e+05,9.902513699999999953e+05,9.902443479999999981e+05,9.901675289999999804e+05,9.900982010000000009e+05,9.901755060000000522e+05,9.900514449999999488e+05,9.901916480000000447e+05,9.903968619999999646e+05,9.904526600000000326e+05,9.904561909999999916e+05,9.905535919999999460e+05,9.905587510000000475e+05,9.903192460000000428e+05,9.904105609999999870e+05,9.905815929999999935e+05,9.909206430000000400e+05,9.910419009999999544e+05,9.908739710000000196e+05,9.908683270000000484e+05,9.906993059999999823e+05,9.906704790000000503e+05,9.908911689999999944e+05,9.910415339999999851e+05,9.909165150000000140e+05,9.906368429999999935e+05,9.904996019999999553e+05,9.905562830000000540e+05,9.905461940000000177e+05,9.905662530000000261e+05,9.904688569999999600e+05,9.903304869999999646e+05,9.901359560000000056e+05,9.901571110000000335e+05,9.899851269999999786e+05,9.900758590000000549e+05,9.901337389999999432e+05,9.901692659999999451e+05,9.901169840000000549e+05,9.900230000000000000e+05,9.899681770000000251e+05,9.900820870000000577e+05,9.899244089999999851e+05,9.901251500000000233e+05,9.900805110000000568e+05,9.902650919999999460e+05,9.902029320000000298e+05,9.899552519999999786e+05,9.899251800000000512e+05,9.899016959999999963e+05,9.898312809999999590e+05,9.899294729999999981e+05,9.897028329999999842e+05,9.896473569999999600e+05,9.896464910000000382e+05,9.896076929999999702e+05,9.897718750000000000e+05,9.898322330000000075e+05,9.900888560000000289e+05,9.902403610000000335e+05,9.901287789999999804e+05,9.901031959999999963e+05,9.900735180000000400e+05,9.900161959999999963e+05,9.899393780000000261e+05,9.900314760000000242e+05,9.899514030000000494e+05,9.900585219999999972e+05,9.899659570000000531e+05,9.899182299999999814e+05,9.899978900000000140e+05,9.901252889999999898e+05,9.904025350000000326e+05,9.906518349999999627e+05,9.908021520000000019e+05,9.907637780000000494e+05,9.907479440000000177e+05,9.907652539999999572e+05,9.907557299999999814e+05,9.908668660000000382e+05,9.908436829999999609e+05,9.908639170000000158e+05,9.908984640000000363e+05,9.911430150000000140e+05,9.916529270000000251e+05,9.918499159999999683e+05,9.920063170000000391e+05,9.922078680000000168e+05,9.924240289999999804e+05,9.924186119999999646e+05,9.921046310000000522e+05,9.921298610000000335e+05,9.917968769999999786e+05,9.916168000000000466e+05,9.913700590000000084e+05,9.912878669999999693e+05,9.912110620000000345e+05,9.908412929999999469e+05,9.903577959999999730e+05,9.901042569999999832e+05,9.896739259999999776e+05,9.892929629999999888e+05,9.890371539999999804e+05,9.889003340000000317e+05,9.886407129999999888e+05,9.882489740000000456e+05,9.878619640000000363e+05,9.877981589999999851e+05,9.877197190000000410e+05,9.877151970000000438e+05,9.875424320000000298e+05,9.873381970000000438e+05,9.871004649999999674e+05,9.868884290000000037e+05,9.868334749999999767e+05,9.867703739999999525e+05,9.867196829999999609e+05,9.867471289999999572e+05,9.866646859999999870e+05,9.865068780000000261e+05,9.865508639999999432e+05,9.862961559999999590e+05,9.861645910000000149e+05,9.863391069999999600e+05,9.864140550000000512e+05,9.863763390000000363e+05,9.861703429999999935e+05,9.861806899999999441e+05,9.859520749999999534e+05,9.860189919999999693e+05,9.862004290000000037e+05,9.861720729999999749e+05,9.860738310000000056e+05,9.858627449999999953e+05,9.857470110000000568e+05,9.856213460000000196e+05,9.855389729999999981e+05,9.851773399999999674e+05,9.845636219999999739e+05,9.842142389999999432e+05,9.842903510000000242e+05,9.855629849999999860e+05,9.875372380000000121e+05,9.894792630000000354e+05,9.931701629999999423e+05,9.986092430000000168e+05,1.004540993000000017e+06,1.010070461000000010e+06,1.013692317000000039e+06,1.013155128000000026e+06,1.008606636000000057e+06,1.003986113999999943e+06,9.989351500000000233e+05,9.951244869999999646e+05,9.923154050000000279e+05,9.904066709999999730e+05,9.890743710000000428e+05,9.871401210000000428e+05,9.855256469999999972e+05,9.846219139999999898e+05,9.846400139999999665e+05,9.846263260000000009e+05,9.838155450000000419e+05,9.833012979999999516e+05,9.828363370000000577e+05,9.825569610000000102e+05,9.823038190000000177e+05,9.819066060000000289e+05,9.812540169999999925e+05,9.806115039999999572e+05,9.807528560000000289e+05,9.813650200000000186e+05,9.818551570000000065e+05,9.828863680000000168e+05,9.836835810000000056e+05,9.840440150000000140e+05,9.842075130000000354e+05,9.846628340000000317e+05,9.852832399999999907e+05,9.857512630000000354e+05,9.860270159999999451e+05,9.863444640000000363e+05,9.865047070000000531e+05,9.865167210000000196e+05,9.864485999999999767e+05,9.865205910000000149e+05,9.865701909999999916e+05,9.868886010000000242e+05,9.870203399999999674e+05,9.871409560000000056e+05,9.871445849999999627e+05,9.870839170000000158e+05,9.870917689999999711e+05,9.872174179999999469e+05,9.872315940000000410e+05,9.874124440000000177e+05,9.877017330000000075e+05,9.878252460000000428e+05,9.877994050000000279e+05,9.879107560000000522e+05,9.878340540000000037e+05,9.879385219999999972e+05,9.879089309999999823e+05,9.880464930000000168e+05,9.879020259999999544e+05,9.877489009999999544e+05,9.877316589999999851e+05,9.874626130000000121e+05,9.872191759999999776e+05,9.872247229999999981e+05,9.872178140000000130e+05,9.870346080000000075e+05,9.867342449999999953e+05,9.868351489999999758e+05,9.867324819999999600e+05,9.866416489999999758e+05,9.866661759999999776e+05,9.868345019999999786e+05,9.868263689999999478e+05,9.868224350000000559e+05,9.867632449999999953e+05,9.867945230000000447e+05,9.868134860000000335e+05,9.870719429999999702e+05,9.872968390000000363e+05,9.873256230000000214e+05,9.873666920000000391e+05,9.875399790000000503e+05,9.875181509999999544e+05,9.876535389999999898e+05,9.879294579999999842e+05,9.881735529999999562e+05,9.884928220000000438e+05,9.886568869999999879e+05,9.886785250000000233e+05,9.888298029999999562e+05,9.889259390000000130e+05,9.891532950000000419e+05,9.893397989999999991e+05,9.897736269999999786e+05,9.897584799999999814e+05,9.898891620000000112e+05,9.901544420000000391e+05,9.901378590000000549e+05,9.901005100000000093e+05,9.905631149999999907e+05,9.905694000000000233e+05,9.907250849999999627e+05,9.906935640000000130e+05,9.907062689999999711e+05,9.906585890000000363e+05,9.907637389999999432e+05,9.909613649999999907e+05,9.911299830000000075e+05,9.912335849999999627e+05,9.910931999999999534e+05,9.909745969999999506e+05,9.910365579999999609e+05,9.906239050000000279e+05,9.906301870000000345e+05,9.906050139999999665e+05,9.903301790000000037e+05,9.900684390000000130e+05,9.898227739999999758e+05,9.895162739999999758e+05,9.890856929999999702e+05,9.888207909999999683e+05,9.887066940000000177e+05,9.886271110000000335e+05,9.883970200000000186e+05,9.878998079999999609e+05,9.876408499999999767e+05,9.872813479999999981e+05,9.871033850000000093e+05,9.868780320000000065e+05,9.867965659999999916e+05,9.865428919999999925e+05,9.863927190000000410e+05,9.861898569999999600e+05,9.861362299999999814e+05,9.859488580000000075e+05,9.859639340000000084e+05,9.858843290000000270e+05,9.860204549999999581e+05,9.858110400000000373e+05,9.856883410000000149e+05,9.856947610000000568e+05,9.855020069999999832e+05,9.855270579999999609e+05,9.857388009999999776e+05,9.856957049999999581e+05,9.856594020000000019e+05,9.855893909999999451e+05,9.856948149999999441e+05,9.855980209999999497e+05,9.855981130000000121e+05,9.858308040000000037e+05,9.861215019999999786e+05,9.860270429999999469e+05,9.861501899999999441e+05,9.862236829999999609e+05,9.864340620000000345e+05,9.864483919999999925e+05,9.867040540000000037e+05,9.870155039999999572e+05,9.872950829999999842e+05,9.872850879999999888e+05,9.873074980000000214e+05,9.874303680000000168e+05,9.875923819999999832e+05,9.877466729999999516e+05,9.878915609999999870e+05,9.877286139999999432e+05,9.876656269999999786e+05,9.876491809999999823e+05,9.875987020000000484e+05,9.874309529999999795e+05,9.877080640000000130e+05,9.877711609999999637e+05,9.877873639999999432e+05,9.875377110000000102e+05,9.875777530000000261e+05,9.875748639999999432e+05,9.876136929999999702e+05,9.875701870000000345e+05,9.877939320000000298e+05,9.878091430000000400e+05,9.877218880000000354e+05,9.876914279999999562e+05,9.879517680000000400e+05,9.878925350000000326e+05,9.880376990000000224e+05,9.881553860000000568e+05,9.884380749999999534e+05,9.883702489999999525e+05,9.883502639999999665e+05,9.885388020000000251e+05,9.886293969999999972e+05,9.884821990000000224e+05,9.886897580000000307e+05,9.886348000000000466e+05,9.887392889999999898e+05,9.886603079999999609e+05,9.887116160000000382e+05,9.886066820000000298e+05,9.887421049999999814e+05,9.889710050000000047e+05,9.891604520000000484e+05,9.888862650000000140e+05,9.889340840000000317e+05,9.888745339999999851e+05,9.889321260000000475e+05,9.888813179999999702e+05,9.890097939999999944e+05,9.890286650000000373e+05,9.891814159999999683e+05,9.890869760000000242e+05,9.889580679999999702e+05,9.890101970000000438e+05,9.891221040000000503e+05,9.891511840000000084e+05,9.893957879999999423e+05,9.894042160000000149e+05,9.893845339999999851e+05,9.892129660000000149e+05,9.892693140000000130e+05,9.890825330000000540e+05,9.892048689999999478e+05,9.892358129999999655e+05,9.895502349999999860e+05,9.894122600000000093e+05,9.893815379999999423e+05,9.892256850000000559e+05,9.892274080000000540e+05,9.890939989999999525e+05,9.892069290000000037e+05,9.893875590000000084e+05,9.894664279999999562e+05,9.891160829999999842e+05,9.890799499999999534e+05,9.889513320000000531e+05,9.890649669999999460e+05,9.890207369999999646e+05,9.892147020000000484e+05,9.890983510000000242e+05,9.890739540000000270e+05,9.888363660000000382e+05,9.889045180000000400e+05,9.887734030000000494e+05,9.889595720000000438e+05,9.888300130000000354e+05,9.888159229999999516e+05,9.886270280000000494e+05,9.886167149999999674e+05,9.885085060000000522e+05,9.885000919999999460e+05,9.881951149999999907e+05,9.884699100000000326e+05,9.882626269999999786e+05,9.881763580000000075e+05,9.880143830000000307e+05,9.879586940000000177e+05,9.877624810000000289e+05,9.878450590000000084e+05,9.877639429999999702e+05,9.880982550000000047e+05,9.881999089999999851e+05,9.883952240000000456e+05,9.884987619999999879e+05,9.887843499999999767e+05,9.888182160000000149e+05,9.890657319999999600e+05,9.891757700000000186e+05,9.894636099999999860e+05,9.893556709999999730e+05,9.893616019999999553e+05,9.892596570000000065e+05,9.894496049999999814e+05,9.908207049999999581e+05,9.913499259999999776e+05,9.911278519999999553e+05,9.910271480000000447e+05,9.905359239999999991e+05,9.904061920000000391e+05,9.901299529999999795e+05,9.901801049999999814e+05,9.898433179999999702e+05,9.893405899999999674e+05,9.883748240000000224e+05,9.881728499999999767e+05,9.876337070000000531e+05,9.876321289999999572e+05,9.871310949999999721e+05,9.872705929999999935e+05,9.869673460000000196e+05,9.870073190000000177e+05,9.865512730000000447e+05,9.865223789999999572e+05,9.860489520000000484e+05,9.862242759999999544e+05,9.859679420000000391e+05,9.861821210000000428e+05,9.858649279999999562e+05,9.860169420000000391e+05,9.854713919999999925e+05,9.858406139999999432e+05,9.855164529999999795e+05,9.857079649999999674e+05,9.853968730000000214e+05,9.858399980000000214e+05,9.853187970000000205e+05,9.855541110000000335e+05,9.849022939999999944e+05,9.852581580000000540e+05,9.848583610000000335e+05,9.853476629999999423e+05,9.842199070000000065e+05,9.841600400000000373e+05,9.832410690000000177e+05,9.841316040000000503e+05,9.845158159999999916e+05,9.874808349999999627e+05,9.884735200000000186e+05,9.935435770000000484e+05,9.971442879999999423e+05,1.004960150999999954e+06,1.007954393999999971e+06,1.015638547999999952e+06,1.000689969999999972e+06,9.820376770000000251e+05,9.854252140000000363e+05,9.823089000000000233e+05,9.838550420000000158e+05,9.817803680000000168e+05,9.820217889999999898e+05,9.805578950000000186e+05,9.812379009999999544e+05,9.802550559999999823e+05,9.805027290000000503e+05,9.793565429999999469e+05,9.793089420000000391e+05,9.789247750000000233e+05,9.800726019999999553e+05,9.805638220000000438e+05,9.818052410000000382e+05,9.819295330000000540e+05,9.825164629999999888e+05,9.824995770000000484e+05,9.831317530000000261e+05,9.833760389999999898e+05,9.842777020000000484e+05,9.844704810000000289e+05,9.848202340000000549e+05,9.845575609999999870e+05,9.849469830000000075e+05,9.847105470000000205e+05,9.848950500000000466e+05,9.849198800000000047e+05,9.853415439999999944e+05,9.852132489999999525e+05,9.853106629999999423e+05,9.850314610000000102e+05,9.853944340000000084e+05,9.851583560000000289e+05,9.854023199999999488e+05,9.854962140000000363e+05,9.857338109999999870e+05,9.856448769999999786e+05,9.858320230000000447e+05,9.857883490000000456e+05,9.859260159999999451e+05,9.858204629999999888e+05,9.860966750000000466e+05,9.861726080000000075e+05,9.864389529999999795e+05,9.861426909999999916e+05,9.861747650000000140e+05,9.860202489999999525e+05,9.860494109999999637e+05,9.860569239999999991e+05,9.861845540000000037e+05,9.860420500000000466e+05,9.860405579999999609e+05,9.858854560000000056e+05,9.858881219999999739e+05,9.857180969999999506e+05,9.857975100000000093e+05,9.859018129999999655e+05,9.860257639999999665e+05,9.860588649999999907e+05,9.861480429999999469e+05,9.859696369999999879e+05,9.861260999999999767e+05,9.862142229999999981e+05,9.864353680000000168e+05,9.865870400000000373e+05,9.867669100000000326e+05,9.865095790000000270e+05,9.867802090000000317e+05,9.867994760000000242e+05,9.870809239999999991e+05,9.873241180000000168e+05,9.874987600000000093e+05,9.874475289999999804e+05,9.876335119999999879e+05,9.877265799999999581e+05,9.878438029999999562e+05,9.879870749999999534e+05,9.883124059999999590e+05,9.884072210000000196e+05,9.886318190000000177e+05,9.885371010000000242e+05,9.886719089999999851e+05,9.888507149999999674e+05,9.890781629999999423e+05,9.892441659999999683e+05,9.894429100000000326e+05,9.894858869999999879e+05,9.895716289999999572e+05,9.895582430000000168e+05,9.895460579999999609e+05,9.895327199999999721e+05,9.898211609999999637e+05,9.899920230000000447e+05,9.901361750000000466e+05,9.900150060000000522e+05,9.899930450000000419e+05,9.898313070000000298e+05,9.897668939999999711e+05,9.895691350000000093e+05,9.895104969999999739e+05,9.895029320000000298e+05,9.891749649999999674e+05,9.887531389999999665e+05,9.886603410000000149e+05,9.882400999999999767e+05,9.880914420000000391e+05,9.879969710000000196e+05,9.877653860000000568e+05,9.872776970000000438e+05,9.869068399999999674e+05,9.864708050000000512e+05,9.862064910000000382e+05,9.859502569999999832e+05,9.858591770000000251e+05,9.856533390000000363e+05,9.857507700000000186e+05,9.854349799999999814e+05,9.852754989999999525e+05,9.850253029999999562e+05,9.848272190000000410e+05,9.849003549999999814e+05,9.849317550000000047e+05,9.847263270000000484e+05,9.846526369999999879e+05,9.843946219999999739e+05,9.842096419999999925e+05,9.840930550000000512e+05,9.842369699999999721e+05,9.843009799999999814e+05,9.844316230000000214e+05,9.843333399999999674e+05,9.842859719999999506e+05,9.841927510000000475e+05,9.840032210000000196e+05,9.840279209999999730e+05,9.841759070000000065e+05,9.840806659999999683e+05,9.839745799999999581e+05,9.838671550000000279e+05,9.838570039999999572e+05,9.837768310000000056e+05,9.837939719999999506e+05,9.840852460000000428e+05,9.843521770000000251e+05,9.842357770000000019e+05,9.842015280000000494e+05,9.841814590000000317e+05,9.840239699999999721e+05,9.842066339999999618e+05,9.844437049999999581e+05,9.845521400000000140e+05,9.845913299999999581e+05,9.845608310000000056e+05,9.846447419999999693e+05,9.846763290000000270e+05,9.844674930000000168e+05,9.846403769999999786e+05,9.847974599999999627e+05,9.846937989999999991e+05,9.845169020000000019e+05,9.844248580000000075e+05,9.845266600000000326e+05,9.845344290000000037e+05,9.845850899999999674e+05,9.848014459999999963e+05,9.848554200000000419e+05,9.847240960000000196e+05,9.847844290000000037e+05,9.847804340000000084e+05,9.848159510000000009e+05,9.849103889999999665e+05,9.851134259999999776e+05,9.852889449999999488e+05,9.853005600000000559e+05,9.853016330000000307e+05,9.851891330000000307e+05,9.850468370000000577e+05,9.850570520000000251e+05,9.852688490000000456e+05,9.854957399999999907e+05,9.854981409999999451e+05,9.853005929999999935e+05,9.852643209999999963e+05,9.851350050000000047e+05,9.851154640000000363e+05,9.853778530000000028e+05,9.853820209999999497e+05,9.853262310000000289e+05,9.853101330000000307e+05,9.852937700000000186e+05,9.851477970000000205e+05,9.852459640000000363e+05,9.853773190000000177e+05,9.856067249999999767e+05,9.854878040000000037e+05,9.852196430000000400e+05,9.852918510000000242e+05,9.851982659999999451e+05,9.852371689999999944e+05,9.854301419999999925e+05,9.856200209999999497e+05,9.856869250000000466e+05,9.855982659999999451e+05,9.854557630000000354e+05,9.855201160000000382e+05,9.854507839999999851e+05,9.854949849999999860e+05,9.856419679999999935e+05,9.857644679999999935e+05,9.858378919999999925e+05,9.857318040000000037e+05,9.856669830000000075e+05,9.857777770000000019e+05,9.856396239999999525e+05,9.858384159999999683e+05,9.860773290000000270e+05,9.860264449999999488e+05,9.857733800000000047e+05,9.857980590000000084e+05,9.858975940000000410e+05,9.859441139999999432e+05,9.860320760000000009e+05,9.861569449999999488e+05,9.860324120000000112e+05,9.858703399999999674e+05,9.858542460000000428e+05,9.858208780000000261e+05,9.859739129999999423e+05,9.860768739999999525e+05,9.860027480000000214e+05,9.858925000000000000e+05,9.856745479999999516e+05,9.856713519999999553e+05,9.855556520000000019e+05,9.856429300000000512e+05,9.857911620000000112e+05,9.858534059999999590e+05,9.856734939999999478e+05,9.856110039999999572e+05,9.857262580000000307e+05,9.860584599999999627e+05,9.862446489999999758e+05,9.866834229999999516e+05,9.869941189999999478e+05,9.872402439999999478e+05,9.872491439999999711e+05,9.872824510000000009e+05,9.873075050000000047e+05,9.872709259999999776e+05,9.873044279999999562e+05,9.874675350000000326e+05,9.874390529999999562e+05,9.878753020000000251e+05,9.883602500000000000e+05,9.885533140000000130e+05,9.888023000000000466e+05,9.890113170000000391e+05,9.890584510000000009e+05,9.891279719999999506e+05,9.889258000000000466e+05,9.890516709999999730e+05,9.888599579999999842e+05,9.887608750000000000e+05,9.886681380000000354e+05,9.885485019999999786e+05,9.883482430000000168e+05,9.879673880000000354e+05,9.876172539999999572e+05,9.872666999999999534e+05,9.866430529999999562e+05,9.865951589999999851e+05,9.865434259999999776e+05,9.864419390000000130e+05,9.860537879999999423e+05,9.857621330000000307e+05,9.854695600000000559e+05,9.854800690000000177e+05,9.853911049999999814e+05,9.854924239999999991e+05,9.852716650000000373e+05,9.852822010000000009e+05,9.850368340000000317e+05,9.851128549999999814e+05,9.849871899999999441e+05,9.838747169999999460e+05,9.835255309999999590e+05,9.849444529999999795e+05,9.865560910000000149e+05,9.887690840000000317e+05,9.912112619999999879e+05,9.970798889999999665e+05,9.962096219999999739e+05,9.922565239999999758e+05,9.910469699999999721e+05,9.888059919999999693e+05,9.866371450000000186e+05,9.846545389999999898e+05,9.838050649999999441e+05,9.835238519999999553e+05,9.834036139999999432e+05,9.825160250000000233e+05,9.820362750000000233e+05,9.815719749999999767e+05,9.812402410000000382e+05,9.809311500000000233e+05,9.804113989999999758e+05,9.798720550000000512e+05,9.794968020000000251e+05,9.798464610000000102e+05,9.802995250000000233e+05,9.809976779999999562e+05,9.816789189999999944e+05,9.822528479999999981e+05,9.828404229999999516e+05,9.832980370000000112e+05,9.837517879999999423e+05,9.844055400000000373e+05,9.846969860000000335e+05,9.849696369999999879e+05,9.849967719999999972e+05,9.852025919999999460e+05,9.853368769999999786e+05,9.855660559999999823e+05,9.856703050000000512e+05,9.857056739999999991e+05,9.857049919999999693e+05,9.858840509999999776e+05,9.858499459999999963e+05,9.861219270000000251e+05,9.860574570000000531e+05,9.863291970000000438e+05,9.861101530000000494e+05,9.863097809999999590e+05,9.860240890000000363e+05,9.863728730000000214e+05,9.863197389999999432e+05,9.867437510000000475e+05,9.863667419999999693e+05,9.869080790000000270e+05,9.862239880000000121e+05,9.868936419999999925e+05,9.858435030000000261e+05,9.876322639999999665e+05
